timestamp,sample
367012,-131
367020,-129
367028,-133
367036,-148
367044,-171
367052,-192
367060,-202
367068,-210
367076,-217
367084,-211
367092,-198
367100,-191
367108,-191
367116,-193
367124,-187
367132,-178
367140,-175
367148,-175
367156,-179
367164,-183
367172,-187
367180,-194
367188,-199
367196,-195
367204,-194
367212,-201
367220,-204
367228,-196
367236,-186
367244,-182
367252,-183
367260,-187
367268,-189
367276,-182
367284,-167
367292,-155
367300,-166
367308,-186
367316,-198
367324,-189
367332,-178
367340,-174
367348,-167
367356,-182
367364,-275
367372,-344
367380,-115
367388,444
367396,832
367404,593
367412,-138
367420,-726
367428,-819
367436,-610
367444,-451
367452,-419
367460,-407
367468,-365
367476,-311
367484,-275
367492,-293
367500,-352
367508,-386
367516,-366
367524,-317
367532,-277
367540,-258
367548,-244
367556,-222
367564,-191
367572,-165
367580,-151
367588,-148
367596,-153
367604,-186
367612,-234
367620,-270
367628,-265
367636,-242
367644,-228
367652,-227
367660,-245
367668,-283
367676,-342
367684,-410
367692,-455
367700,-477
367708,-489
367716,-493
367724,-482
367732,-452
367740,-415
367748,-386
367756,-384
367764,-400
367772,-420
367780,-407
367788,-380
367796,-383
367804,-417
367812,-434
367820,-412
367828,-365
367836,-333
367844,-318
367852,-323
367860,-344
367868,-377
367876,-406
367884,-422
367892,-424
367900,-425
367908,-425
367916,-425
367924,-417
367932,-407
367940,-404
367948,-412
367956,-426
367964,-437
367972,-440
367980,-436
367988,-429
367996,-426
368004,-432
368012,-439
368020,-438
368028,-443
368036,-448
368044,-449
368052,-439
368060,-428
368068,-432
368076,-453
368084,-473
368092,-478
368100,-478
368108,-474
368116,-478
368124,-483
368132,-482
368140,-481
368148,-476
368156,-458
368164,-433
368172,-407
368180,-404
368188,-406
368196,-402
368204,-389
368212,-367
368220,-348
368228,-341
368236,-348
368244,-363
368252,-368
368260,-358
368268,-349
368276,-333
368284,-306
368292,-305
368300,-389
368308,-452
368316,-190
368324,427
368332,864
368340,607
368348,-161
368356,-758
368364,-805
368372,-541
368380,-357
368388,-336
368396,-336
368404,-295
368412,-209
368420,-99
368428,-24
368436,0
368444,20
368452,69
368460,137
368468,197
368476,243
368484,272
368492,290
368500,306
368508,328
368516,356
368524,393
368532,434
368540,476
368548,504
368556,512
368564,515
368572,515
368580,506
368588,496
368596,482
368604,462
368612,421
368620,370
368628,335
368636,320
368644,322
368652,325
368660,327
368668,342
368676,375
368684,396
368692,381
368700,349
368708,339
368716,364
368724,378
368732,347
368740,291
368748,234
368756,207
368764,209
368772,237
368780,276
368788,297
368796,300
368804,296
368812,302
368820,300
368828,293
368836,294
368844,314
368852,340
368860,343
368868,318
368876,291
368884,282
368892,296
368900,313
368908,327
368916,330
368924,330
368932,325
368940,312
368948,298
368956,286
368964,273
368972,261
368980,242
368988,218
368996,202
369004,193
369012,186
369020,173
369028,158
369036,152
369044,152
369052,148
369060,144
369068,144
369076,143
369084,139
369092,134
369100,137
369108,136
369116,133
369124,122
369132,123
369140,133
369148,150
369156,154
369164,138
369172,111
369180,88
369188,72
369196,62
369204,42
369212,33
369220,38
369228,-6
369236,-134
369244,-190
369252,121
369260,717
369268,1028
369276,651
369284,-136
369292,-675
369300,-688
369308,-454
369316,-307
369324,-289
369332,-274
369340,-234
369348,-175
369356,-126
369364,-139
369372,-195
369380,-231
369388,-210
369396,-151
369404,-100
369412,-77
369420,-75
369428,-70
369436,-55
369444,-28
369452,-3
369460,28
369468,59
369476,66
369484,41
369492,5
369500,-16
369508,-16
369516,-14
369524,-12
369532,-22
369540,-52
369548,-101
369556,-159
369564,-203
369572,-219
369580,-214
369588,-202
369596,-184
369604,-163
369612,-136
369620,-115
369628,-100
369636,-116
369644,-134
369652,-144
369660,-131
369668,-128
369676,-156
369684,-191
369692,-192
369700,-158
369708,-108
369716,-65
369724,-44
369732,-49
369740,-72
369748,-104
369756,-130
369764,-152
369772,-165
369780,-169
369788,-161
369796,-146
369804,-125
369812,-109
369820,-114
369828,-128
369836,-135
369844,-127
369852,-123
369860,-131
369868,-153
369876,-177
369884,-195
369892,-209
369900,-220
369908,-221
369916,-219
369924,-208
369932,-205
369940,-205
369948,-205
369956,-209
369964,-217
369972,-224
369980,-227
369988,-229
369996,-239
370004,-257
370012,-271
370020,-283
370028,-283
370036,-283
370044,-295
370052,-310
370060,-324
370068,-320
370076,-302
370084,-292
370092,-298
370100,-318
370108,-335
370116,-340
370124,-338
370132,-327
370140,-309
370148,-308
370156,-385
370164,-507
370172,-399
370180,99
370188,623
370196,592
370204,-57
370212,-772
370220,-1020
370228,-862
370236,-660
370244,-601
370252,-601
370260,-583
370268,-541
370276,-472
370284,-424
370292,-436
370300,-473
370308,-489
370316,-464
370324,-415
370332,-370
370340,-348
370348,-341
370356,-343
370364,-335
370372,-325
370380,-321
370388,-319
370396,-307
370404,-297
370412,-303
370420,-312
370428,-314
370436,-308
370444,-306
370452,-322
370460,-351
370468,-396
370476,-443
370484,-478
370492,-493
370500,-498
370508,-492
370516,-471
370524,-436
370532,-404
370540,-369
370548,-333
370556,-312
370564,-326
370572,-342
370580,-336
370588,-318
370596,-347
370604,-416
370612,-458
370620,-436
370628,-380
370636,-333
370644,-312
370652,-307
370660,-314
370668,-311
370676,-293
370684,-273
370692,-262
370700,-260
370708,-258
370716,-250
370724,-242
370732,-225
370740,-204
370748,-191
370756,-204
370764,-224
370772,-233
370780,-234
370788,-226
370796,-218
370804,-206
370812,-181
370820,-152
370828,-121
370836,-88
370844,-55
370852,-25
370860,-5
370868,14
370876,36
370884,66
370892,95
370900,123
370908,156
370916,189
370924,214
370932,236
370940,253
370948,280
370956,314
370964,346
370972,360
370980,362
370988,362
370996,371
371004,375
371012,378
371020,391
371028,404
371036,349
371044,221
371052,252
371060,715
371068,1343
371076,1476
371084,861
371092,17
371100,-389
371108,-258
371116,1
371124,105
371132,102
371140,117
371148,157
371156,232
371164,302
371172,315
371180,285
371188,262
371196,269
371204,285
371212,288
371220,288
371228,280
371236,268
371244,262
371252,269
371260,291
371268,321
371276,360
371284,397
371292,431
371300,441
371308,442
371316,434
371324,425
371332,413
371340,391
371348,345
371356,265
371364,171
371372,90
371380,34
371388,13
371396,17
371404,31
371412,56
371420,89
371428,123
371436,142
371444,131
371452,109
371460,112
371468,137
371476,140
371484,93
371492,38
371500,24
371508,65
371516,123
371524,161
371532,176
371540,176
371548,172
371556,172
371564,170
371572,155
371580,135
371588,129
371596,138
371604,154
371612,153
371620,136
371628,118
371636,108
371644,109
371652,106
371660,97
371668,90
371676,80
371684,71
371692,58
371700,39
371708,28
371716,26
371724,29
371732,28
371740,23
371748,17
371756,13
371764,13
371772,11
371780,9
371788,4
371796,-3
371804,-6
371812,1
371820,1
371828,-4
371836,-9
371844,-13
371852,-19
371860,-32
371868,-48
371876,-53
371884,-49
371892,-37
371900,-32
371908,-37
371916,-53
371924,-66
371932,-64
371940,-65
371948,-63
371956,-51
371964,-54
371972,-133
371980,-246
371988,-124
371996,400
372004,931
372012,881
372020,195
372028,-538
372036,-788
372044,-613
372052,-394
372060,-328
372068,-317
372076,-275
372084,-212
372092,-150
372100,-135
372108,-170
372116,-212
372124,-217
372132,-186
372140,-143
372148,-109
372156,-87
372164,-74
372172,-56
372180,-38
372188,-12
372196,17
372204,42
372212,52
372220,39
372228,17
372236,3
372244,4
372252,6
372260,4
372268,0
372276,-18
372284,-63
372292,-127
372300,-179
372308,-201
372316,-202
372324,-199
372332,-194
372340,-178
372348,-148
372356,-119
372364,-95
372372,-88
372380,-97
372388,-119
372396,-132
372404,-133
372412,-149
372420,-180
372428,-195
372436,-178
372444,-136
372452,-85
372460,-37
372468,-14
372476,-16
372484,-32
372492,-55
372500,-85
372508,-118
372516,-143
372524,-151
372532,-144
372540,-131
372548,-110
372556,-83
372564,-65
372572,-67
372580,-76
372588,-83
372596,-82
372604,-87
372612,-96
372620,-105
372628,-116
372636,-128
372644,-141
372652,-139
372660,-125
372668,-116
372676,-121
372684,-137
372692,-147
372700,-143
372708,-143
372716,-145
372724,-150
372732,-145
372740,-143
372748,-142
372756,-142
372764,-143
372772,-144
372780,-151
372788,-164
372796,-176
372804,-185
372812,-190
372820,-194
372828,-191
372836,-193
372844,-203
372852,-213
372860,-223
372868,-234
372876,-243
372884,-252
372892,-248
372900,-231
372908,-216
372916,-213
372924,-227
372932,-243
372940,-248
372948,-241
372956,-237
372964,-232
372972,-218
372980,-220
372988,-301
372996,-403
373004,-252
373012,284
373020,778
373028,673
373036,-39
373044,-748
373052,-955
373060,-766
373068,-562
373076,-507
373084,-496
373092,-455
373100,-394
373108,-317
373116,-267
373124,-276
373132,-297
373140,-296
373148,-268
373156,-245
373164,-235
373172,-242
373180,-247
373188,-238
373196,-228
373204,-236
373212,-253
373220,-261
373228,-256
373236,-261
373244,-285
373252,-301
373260,-289
373268,-262
373276,-244
373284,-251
373292,-279
373300,-320
373308,-366
373316,-399
373324,-426
373332,-436
373340,-429
373348,-410
373356,-390
373364,-373
373372,-354
373380,-341
373388,-338
373396,-357
373404,-377
373412,-375
373420,-355
373428,-357
373436,-399
373444,-453
373452,-473
373460,-447
373468,-402
373476,-381
373484,-384
373492,-416
373500,-446
373508,-473
373516,-489
373524,-497
373532,-501
373540,-505
373548,-510
373556,-516
373564,-519
373572,-523
373580,-536
373588,-546
373596,-559
373604,-565
373612,-564
373620,-568
373628,-580
373636,-603
373644,-634
373652,-662
373660,-678
373668,-681
373676,-687
373684,-711
373692,-754
373700,-798
373708,-827
373716,-852
373724,-871
373732,-899
373740,-929
373748,-972
373756,-1020
373764,-1059
373772,-1080
373780,-1102
373788,-1138
373796,-1178
373804,-1222
373812,-1271
373820,-1313
373828,-1350
373836,-1378
373844,-1394
373852,-1410
373860,-1444
373868,-1503
373876,-1579
373884,-1655
373892,-1720
373900,-1767
373908,-1795
373916,-1794
373924,-1786
373932,-1797
373940,-1801
373948,-1768
373956,-1750
373964,-1815
373972,-1791
373980,-1362
373988,-671
373996,-391
374004,-879
374012,-1656
374020,-1972
374028,-1698
374036,-1272
374044,-967
374052,-658
374060,-297
374068,-36
374076,56
374084,62
374092,9
374100,-84
374108,-169
374116,-226
374124,-319
374132,-552
374140,-921
374148,-1286
374156,-1534
374164,-1643
374172,-1652
374180,-1581
374188,-1433
374196,-1255
374204,-1126
374212,-1109
374220,-1164
374228,-1183
374236,-1102
374244,-938
374252,-711
374260,-451
374268,-189
374276,54
374284,278
374292,505
374300,737
374308,956
374316,1154
374324,1320
374332,1461
374340,1587
374348,1696
374356,1773
374364,1806
374372,1803
374380,1807
374388,1839
374396,1858
374404,1845
374412,1796
374420,1742
374428,1698
374436,1683
374444,1692
374452,1705
374460,1702
374468,1678
374476,1652
374484,1622
374492,1588
374500,1553
374508,1522
374516,1502
374524,1486
374532,1466
374540,1434
374548,1391
374556,1353
374564,1326
374572,1310
374580,1291
374588,1267
374596,1240
374604,1205
374612,1172
374620,1147
374628,1128
374636,1102
374644,1072
374652,1039
374660,1013
374668,994
374676,985
374684,976
374692,960
374700,942
374708,927
374716,911
374724,899
374732,883
374740,870
374748,859
374756,849
374764,837
374772,844
374780,856
374788,875
374796,885
374804,882
374812,870
374820,867
374828,873
374836,885
374844,896
374852,916
374860,972
374868,1007
374876,938
374884,875
374892,1138
374900,1761
374908,2174
374916,1836
374924,950
374932,250
374940,126
374948,340
374956,494
374964,506
374972,499
374980,512
374988,538
374996,577
375004,580
375012,521
375020,449
375028,406
375036,398
375044,404
375052,403
375060,388
375068,369
375076,355
375084,357
375092,363
375100,365
375108,371
375116,379
375124,374
375132,360
375140,355
375148,378
375156,397
375164,397
375172,381
375180,347
375188,280
375196,191
375204,104
375212,50
375220,32
375228,36
375236,52
375244,75
375252,101
375260,127
375268,146
375276,159
375284,150
375292,113
375300,78
375308,77
375316,102
375324,103
375332,65
375340,25
375348,11
375356,24
375364,49
375372,71
375380,80
375388,65
375396,39
375404,16
375412,-6
375420,-29
375428,-44
375436,-44
375444,-16
375452,8
375460,16
375468,4
375476,-23
375484,-42
375492,-37
375500,-29
375508,-26
375516,-39
375524,-56
375532,-70
375540,-85
375548,-105
375556,-129
375564,-143
375572,-144
375580,-142
375588,-146
375596,-152
375604,-152
375612,-149
375620,-150
375628,-154
375636,-154
375644,-154
375652,-155
375660,-156
375668,-151
375676,-149
375684,-156
375692,-164
375700,-166
375708,-165
375716,-164
375724,-162
375732,-161
375740,-166
375748,-175
375756,-187
375764,-187
375772,-183
375780,-172
375788,-166
375796,-164
375804,-171
375812,-186
375820,-196
375828,-193
375836,-188
375844,-173
375852,-152
375860,-171
375868,-277
375876,-328
375884,-24
375892,583
375900,915
375908,545
375916,-264
375924,-831
375932,-863
375940,-618
375948,-452
375956,-407
375964,-374
375972,-330
375980,-282
375988,-233
375996,-228
376004,-269
376012,-307
376020,-308
376028,-276
376036,-237
376044,-215
376052,-205
376060,-190
376068,-163
376076,-137
376084,-115
376092,-98
376100,-85
376108,-89
376116,-113
376124,-145
376132,-158
376140,-159
376148,-161
376156,-178
376164,-203
376172,-240
376180,-300
376188,-371
376196,-433
376204,-462
376212,-461
376220,-455
376228,-445
376236,-430
376244,-415
376252,-399
376260,-386
376268,-372
376276,-378
376284,-393
376292,-395
376300,-391
376308,-398
376316,-422
376324,-438
376332,-421
376340,-387
376348,-354
376356,-337
376364,-335
376372,-351
376380,-373
376388,-398
376396,-423
376404,-438
376412,-433
376420,-410
376428,-390
376436,-385
376444,-377
376452,-365
376460,-363
376468,-372
376476,-377
376484,-373
376492,-356
376500,-346
376508,-348
376516,-356
376524,-368
376532,-376
376540,-380
376548,-378
376556,-367
376564,-355
376572,-337
376580,-323
376588,-304
376596,-288
376604,-275
376612,-268
376620,-267
376628,-265
376636,-260
376644,-257
376652,-261
376660,-270
376668,-278
376676,-281
376684,-275
376692,-265
376700,-257
376708,-251
376716,-246
376724,-244
376732,-243
376740,-240
376748,-240
376756,-234
376764,-227
376772,-212
376780,-207
376788,-210
376796,-218
376804,-229
376812,-230
376820,-229
376828,-223
376836,-193
376844,-165
376852,-208
376860,-330
376868,-285
376876,200
376884,825
376892,930
376900,296
376908,-538
376916,-915
376924,-777
376932,-516
376940,-400
376948,-376
376956,-353
376964,-327
376972,-272
376980,-205
376988,-178
376996,-180
377004,-174
377012,-147
377020,-110
377028,-87
377036,-80
377044,-74
377052,-74
377060,-71
377068,-62
377076,-48
377084,-16
377092,24
377100,64
377108,84
377116,86
377124,91
377132,97
377140,106
377148,111
377156,119
377164,120
377172,108
377180,91
377188,88
377196,98
377204,110
377212,116
377220,132
377228,150
377236,178
377244,204
377252,225
377260,217
377268,198
377276,200
377284,227
377292,244
377300,220
377308,178
377316,150
377324,153
377332,184
377340,221
377348,242
377356,237
377364,230
377372,234
377380,246
377388,246
377396,229
377404,223
377412,233
377420,247
377428,254
377436,247
377444,226
377452,209
377460,199
377468,198
377476,204
377484,207
377492,203
377500,195
377508,191
377516,186
377524,181
377532,178
377540,175
377548,174
377556,170
377564,167
377572,164
377580,163
377588,163
377596,167
377604,172
377612,179
377620,180
377628,174
377636,173
377644,175
377652,193
377660,216
377668,237
377676,245
377684,239
377692,225
377700,207
377708,195
377716,184
377724,172
377732,145
377740,110
377748,87
377756,68
377764,53
377772,59
377780,72
377788,26
377796,-106
377804,-100
377812,328
377820,955
377828,1135
377836,575
377844,-255
377852,-695
377860,-608
377868,-358
377876,-236
377884,-216
377892,-193
377900,-151
377908,-83
377916,-15
377924,-12
377932,-62
377940,-102
377948,-96
377956,-69
377964,-48
377972,-45
377980,-52
377988,-41
377996,-13
378004,16
378012,35
378020,55
378028,76
378036,84
378044,63
378052,32
378060,22
378068,38
378076,52
378084,52
378092,40
378100,8
378108,-45
378116,-116
378124,-173
378132,-201
378140,-206
378148,-198
378156,-183
378164,-163
378172,-140
378180,-121
378188,-101
378196,-89
378204,-94
378212,-112
378220,-118
378228,-113
378236,-115
378244,-144
378252,-170
378260,-165
378268,-139
378276,-108
378284,-79
378292,-62
378300,-58
378308,-71
378316,-95
378324,-120
378332,-138
378340,-147
378348,-143
378356,-132
378364,-116
378372,-96
378380,-85
378388,-88
378396,-105
378404,-110
378412,-107
378420,-109
378428,-119
378436,-135
378444,-146
378452,-151
378460,-154
378468,-157
378476,-160
378484,-163
378492,-162
378500,-169
378508,-169
378516,-164
378524,-154
378532,-146
378540,-140
378548,-142
378556,-143
378564,-147
378572,-152
378580,-152
378588,-155
378596,-160
378604,-167
378612,-168
378620,-165
378628,-161
378636,-159
378644,-164
378652,-173
378660,-186
378668,-195
378676,-194
378684,-197
378692,-201
378700,-217
378708,-240
378716,-263
378724,-275
378732,-283
378740,-272
378748,-251
378756,-260
378764,-358
378772,-450
378780,-230
378788,361
378796,811
378804,588
378812,-179
378820,-821
378828,-937
378836,-714
378844,-543
378852,-508
378860,-496
378868,-462
378876,-411
378884,-347
378892,-309
378900,-315
378908,-328
378916,-321
378924,-297
378932,-270
378940,-259
378948,-260
378956,-262
378964,-252
378972,-232
378980,-221
378988,-230
378996,-245
379004,-265
379012,-287
379020,-305
379028,-290
379036,-254
379044,-223
379052,-212
379060,-228
379068,-259
379076,-309
379084,-377
379092,-435
379100,-464
379108,-466
379116,-460
379124,-437
379132,-404
379140,-370
379148,-341
379156,-309
379164,-286
379172,-289
379180,-310
379188,-306
379196,-264
379204,-234
379212,-247
379220,-287
379228,-302
379236,-290
379244,-259
379252,-222
379260,-196
379268,-202
379276,-242
379284,-282
379292,-297
379300,-295
379308,-292
379316,-295
379324,-296
379332,-292
379340,-283
379348,-265
379356,-251
379364,-251
379372,-258
379380,-265
379388,-264
379396,-256
379404,-252
379412,-243
379420,-241
379428,-244
379436,-251
379444,-251
379452,-247
379460,-240
379468,-235
379476,-228
379484,-231
379492,-243
379500,-249
379508,-245
379516,-237
379524,-233
379532,-220
379540,-195
379548,-167
379556,-150
379564,-139
379572,-135
379580,-131
379588,-127
379596,-118
379604,-100
379612,-77
379620,-57
379628,-43
379636,-29
379644,-13
379652,12
379660,36
379668,72
379676,124
379684,144
379692,61
379700,12
379708,330
379716,998
379724,1404
379732,1041
379740,179
379748,-438
379756,-462
379764,-189
379772,-13
379780,24
379788,47
379796,78
379804,129
379812,209
379820,272
379828,284
379836,270
379844,273
379852,297
379860,328
379868,345
379876,347
379884,336
379892,328
379900,320
379908,320
379916,322
379924,338
379932,357
379940,369
379948,370
379956,373
379964,380
379972,378
379980,366
379988,346
379996,313
380004,259
380012,187
380020,119
380028,87
380036,79
380044,86
380052,92
380060,104
380068,129
380076,172
380084,212
380092,225
380100,195
380108,163
380116,168
380124,200
380132,210
380140,172
380148,111
380156,72
380164,76
380172,110
380180,144
380188,157
380196,153
380204,146
380212,156
380220,172
380228,178
380236,171
380244,173
380252,191
380260,213
380268,226
380276,224
380284,201
380292,175
380300,154
380308,144
380316,144
380324,144
380332,135
380340,115
380348,94
380356,88
380364,90
380372,97
380380,102
380388,101
380396,95
380404,79
380412,70
380420,67
380428,73
380436,77
380444,79
380452,73
380460,64
380468,57
380476,53
380484,55
380492,50
380500,36
380508,21
380516,14
380524,5
380532,-6
380540,-13
380548,-13
380556,-5
380564,5
380572,1
380580,-16
380588,-42
380596,-58
380604,-63
380612,-59
380620,-47
380628,-35
380636,-87
380644,-205
380652,-148
380660,321
380668,919
380676,1010
380684,391
380692,-422
380700,-794
380708,-670
380716,-427
380724,-323
380732,-302
380740,-268
380748,-216
380756,-155
380764,-114
380772,-122
380780,-160
380788,-177
380796,-161
380804,-129
380812,-107
380820,-105
380828,-105
380836,-93
380844,-68
380852,-41
380860,-12
380868,18
380876,31
380884,29
380892,11
380900,2
380908,6
380916,12
380924,13
380932,13
380940,4
380948,-25
380956,-83
380964,-142
380972,-180
380980,-198
380988,-206
380996,-203
381004,-189
381012,-167
381020,-149
381028,-129
381036,-108
381044,-93
381052,-100
381060,-123
381068,-139
381076,-139
381084,-141
381092,-153
381100,-157
381108,-141
381116,-110
381124,-79
381132,-56
381140,-43
381148,-45
381156,-60
381164,-80
381172,-106
381180,-129
381188,-131
381196,-131
381204,-127
381212,-121
381220,-102
381228,-77
381236,-70
381244,-85
381252,-104
381260,-123
381268,-141
381276,-159
381284,-178
381292,-193
381300,-204
381308,-212
381316,-219
381324,-229
381332,-244
381340,-249
381348,-247
381356,-242
381364,-244
381372,-257
381380,-271
381388,-278
381396,-270
381404,-259
381412,-247
381420,-248
381428,-255
381436,-263
381444,-273
381452,-275
381460,-269
381468,-260
381476,-246
381484,-242
381492,-245
381500,-260
381508,-276
381516,-287
381524,-284
381532,-269
381540,-251
381548,-238
381556,-232
381564,-242
381572,-251
381580,-252
381588,-249
381596,-242
381604,-227
381612,-223
381620,-293
381628,-398
381636,-259
381644,277
381652,800
381660,716
381668,5
381676,-717
381684,-934
381692,-742
381700,-534
381708,-474
381716,-458
381724,-429
381732,-390
381740,-323
381748,-263
381756,-265
381764,-283
381772,-273
381780,-230
381788,-186
381796,-158
381804,-145
381812,-146
381820,-148
381828,-148
381836,-154
381844,-156
381852,-159
381860,-147
381868,-132
381876,-133
381884,-139
381892,-135
381900,-122
381908,-116
381916,-129
381924,-144
381932,-179
381940,-229
381948,-295
381956,-343
381964,-364
381972,-367
381980,-356
381988,-335
381996,-303
382004,-272
382012,-238
382020,-208
382028,-196
382036,-206
382044,-209
382052,-188
382060,-164
382068,-169
382076,-211
382084,-246
382092,-234
382100,-193
382108,-156
382116,-137
382124,-126
382132,-123
382140,-116
382148,-113
382156,-105
382164,-86
382172,-67
382180,-50
382188,-38
382196,-22
382204,-1
382212,14
382220,17
382228,23
382236,42
382244,65
382252,87
382260,101
382268,115
382276,125
382284,128
382292,128
382300,134
382308,150
382316,173
382324,191
382332,195
382340,198
382348,208
382356,213
382364,211
382372,197
382380,188
382388,194
382396,208
382404,210
382412,201
382420,199
382428,202
382436,208
382444,210
382452,210
382460,205
382468,205
382476,215
382484,231
382492,238
382500,227
382508,199
382516,181
382524,176
382532,176
382540,184
382548,204
382556,198
382564,101
382572,-3
382580,209
382588,829
382596,1321
382604,1102
382612,280
382620,-430
382628,-564
382636,-326
382644,-124
382652,-66
382660,-45
382668,-11
382676,33
382684,101
382692,154
382700,145
382708,106
382716,81
382724,89
382732,105
382740,115
382748,111
382756,109
382764,113
382772,128
382780,145
382788,163
382796,186
382804,210
382812,218
382820,205
382828,193
382836,198
382844,202
382852,197
382860,190
382868,172
382876,135
382884,66
382892,-7
382900,-58
382908,-79
382916,-79
382924,-69
382932,-63
382940,-56
382948,-35
382956,-5
382964,8
382972,-2
382980,-32
382988,-52
382996,-38
383004,-16
383012,-32
383020,-78
383028,-119
383036,-109
383044,-74
383052,-38
383060,-18
383068,-12
383076,-18
383084,-29
383092,-44
383100,-62
383108,-81
383116,-86
383124,-73
383132,-47
383140,-32
383148,-28
383156,-36
383164,-45
383172,-57
383180,-68
383188,-76
383196,-82
383204,-97
383212,-114
383220,-128
383228,-126
383236,-115
383244,-107
383252,-101
383260,-93
383268,-93
383276,-100
383284,-109
383292,-109
383300,-103
383308,-96
383316,-91
383324,-88
383332,-90
383340,-94
383348,-90
383356,-78
383364,-72
383372,-75
383380,-84
383388,-91
383396,-91
383404,-95
383412,-94
383420,-93
383428,-88
383436,-86
383444,-90
383452,-99
383460,-96
383468,-85
383476,-70
383484,-68
383492,-79
383500,-100
383508,-114
383516,-117
383524,-117
383532,-109
383540,-84
383548,-64
383556,-120
383564,-231
383572,-136
383580,364
383588,912
383596,905
383604,231
383612,-533
383620,-825
383628,-664
383636,-430
383644,-337
383652,-310
383660,-269
383668,-222
383676,-165
383684,-130
383692,-144
383700,-175
383708,-184
383716,-163
383724,-136
383732,-119
383740,-116
383748,-108
383756,-97
383764,-91
383772,-87
383780,-83
383788,-74
383796,-74
383804,-90
383812,-112
383820,-121
383828,-107
383836,-98
383844,-97
383852,-104
383860,-114
383868,-133
383876,-174
383884,-232
383892,-282
383900,-317
383908,-329
383916,-328
383924,-312
383932,-288
383940,-267
383948,-258
383956,-256
383964,-259
383972,-267
383980,-268
383988,-252
383996,-228
384004,-220
384012,-229
384020,-232
384028,-216
384036,-199
384044,-187
384052,-178
384060,-178
384068,-192
384076,-218
384084,-240
384092,-253
384100,-250
384108,-242
384116,-233
384124,-231
384132,-225
384140,-215
384148,-205
384156,-209
384164,-216
384172,-210
384180,-195
384188,-184
384196,-178
384204,-180
384212,-188
384220,-197
384228,-209
384236,-211
384244,-206
384252,-190
384260,-172
384268,-160
384276,-160
384284,-173
384292,-181
384300,-184
384308,-184
384316,-178
384324,-165
384332,-155
384340,-155
384348,-165
384356,-172
384364,-177
384372,-174
384380,-171
384388,-164
384396,-157
384404,-152
384412,-155
384420,-161
384428,-163
384436,-156
384444,-141
384452,-127
384460,-123
384468,-131
384476,-146
384484,-156
384492,-157
384500,-154
384508,-137
384516,-117
384524,-160
384532,-272
384540,-211
384548,279
384556,894
384564,969
384572,303
384580,-533
384588,-886
384596,-724
384604,-469
384612,-373
384620,-369
384628,-353
384636,-330
384644,-269
384652,-186
384660,-145
384668,-151
384676,-166
384684,-150
384692,-114
384700,-85
384708,-72
384716,-69
384724,-71
384732,-75
384740,-71
384748,-56
384756,-33
384764,3
384772,41
384780,70
384788,91
384796,104
384804,111
384812,119
384820,128
384828,133
384836,124
384844,84
384852,35
384860,1
384868,-7
384876,0
384884,13
384892,35
384900,70
384908,109
384916,150
384924,164
384932,156
384940,138
384948,145
384956,176
384964,191
384972,175
384980,137
384988,109
384996,108
385004,130
385012,166
385020,186
385028,193
385036,194
385044,195
385052,202
385060,198
385068,196
385076,197
385084,203
385092,210
385100,223
385108,226
385116,212
385124,194
385132,179
385140,171
385148,166
385156,167
385164,167
385172,164
385180,157
385188,147
385196,136
385204,129
385212,124
385220,121
385228,120
385236,120
385244,120
385252,115
385260,115
385268,122
385276,124
385284,126
385292,127
385300,121
385308,112
385316,105
385324,103
385332,98
385340,95
385348,86
385356,84
385364,78
385372,72
385380,64
385388,73
385396,89
385404,89
385412,61
385420,29
385428,8
385436,0
385444,-2
385452,18
385460,29
385468,-43
385476,-172
385484,-87
385492,423
385500,1008
385508,1019
385516,327
385524,-481
385532,-795
385540,-631
385548,-391
385556,-302
385564,-280
385572,-247
385580,-199
385588,-145
385596,-100
385604,-109
385612,-145
385620,-160
385628,-138
385636,-105
385644,-88
385652,-87
385660,-88
385668,-74
385676,-54
385684,-29
385692,-4
385700,27
385708,48
385716,49
385724,23
385732,2
385740,-2
385748,10
385756,20
385764,25
385772,18
385780,-6
385788,-64
385796,-136
385804,-191
385812,-205
385820,-200
385828,-189
385836,-179
385844,-168
385852,-143
385860,-119
385868,-103
385876,-98
385884,-106
385892,-113
385900,-109
385908,-103
385916,-111
385924,-133
385932,-143
385940,-128
385948,-105
385956,-76
385964,-50
385972,-32
385980,-37
385988,-59
385996,-80
386004,-101
386012,-112
386020,-109
386028,-104
386036,-101
386044,-101
386052,-85
386060,-65
386068,-62
386076,-74
386084,-81
386092,-73
386100,-70
386108,-79
386116,-91
386124,-95
386132,-96
386140,-103
386148,-116
386156,-118
386164,-114
386172,-103
386180,-102
386188,-104
386196,-100
386204,-96
386212,-98
386220,-109
386228,-115
386236,-124
386244,-135
386252,-151
386260,-165
386268,-171
386276,-168
386284,-172
386292,-174
386300,-173
386308,-163
386316,-157
386324,-159
386332,-170
386340,-171
386348,-165
386356,-160
386364,-170
386372,-186
386380,-215
386388,-238
386396,-243
386404,-238
386412,-225
386420,-197
386428,-178
386436,-236
386444,-348
386452,-235
386460,286
386468,839
386476,801
386484,100
386492,-664
386500,-928
386508,-755
386516,-526
386524,-441
386532,-416
386540,-380
386548,-332
386556,-269
386564,-217
386572,-223
386580,-253
386588,-266
386596,-241
386604,-203
386612,-167
386620,-158
386628,-163
386636,-168
386644,-164
386652,-152
386660,-141
386668,-133
386676,-124
386684,-122
386692,-126
386700,-117
386708,-105
386716,-94
386724,-98
386732,-112
386740,-131
386748,-157
386756,-200
386764,-251
386772,-301
386780,-332
386788,-341
386796,-331
386804,-315
386812,-296
386820,-274
386828,-248
386836,-228
386844,-227
386852,-237
386860,-240
386868,-222
386876,-193
386884,-194
386892,-225
386900,-252
386908,-249
386916,-219
386924,-185
386932,-166
386940,-167
386948,-170
386956,-177
386964,-183
386972,-191
386980,-187
386988,-169
386996,-158
387004,-164
387012,-170
387020,-166
387028,-152
387036,-143
387044,-143
387052,-139
387060,-127
387068,-118
387076,-115
387084,-109
387092,-103
387100,-96
387108,-87
387116,-83
387124,-78
387132,-70
387140,-58
387148,-37
387156,-8
387164,17
387172,36
387180,55
387188,75
387196,98
387204,123
387212,135
387220,151
387228,161
387236,176
387244,184
387252,188
387260,192
387268,209
387276,235
387284,250
387292,251
387300,241
387308,226
387316,222
387324,216
387332,219
387340,243
387348,259
387356,192
387364,65
387372,167
387380,710
387388,1293
387396,1255
387404,513
387412,-290
387420,-569
387428,-387
387436,-165
387444,-95
387452,-85
387460,-57
387468,-23
387476,43
387484,119
387492,137
387500,101
387508,65
387516,68
387524,93
387532,114
387540,121
387548,111
387556,99
387564,98
387572,108
387580,130
387588,157
387596,179
387604,184
387612,180
387620,176
387628,185
387636,202
387644,198
387652,182
387660,157
387668,122
387676,64
387684,-6
387692,-62
387700,-94
387708,-96
387716,-86
387724,-67
387732,-51
387740,-26
387748,5
387756,28
387764,26
387772,1
387780,-17
387788,-2
387796,27
387804,28
387812,-12
387820,-59
387828,-71
387836,-47
387844,-14
387852,5
387860,6
387868,-7
387876,-13
387884,-14
387892,-14
387900,-27
387908,-44
387916,-38
387924,-18
387932,-1
387940,1
387948,-13
387956,-29
387964,-39
387972,-40
387980,-46
387988,-52
387996,-58
388004,-66
388012,-72
388020,-79
388028,-85
388036,-83
388044,-76
388052,-71
388060,-73
388068,-78
388076,-78
388084,-76
388092,-76
388100,-85
388108,-91
388116,-94
388124,-89
388132,-87
388140,-86
388148,-84
388156,-79
388164,-83
388172,-88
388180,-92
388188,-93
388196,-96
388204,-100
388212,-106
388220,-98
388228,-89
388236,-82
388244,-80
388252,-89
388260,-107
388268,-123
388276,-118
388284,-110
388292,-92
388300,-67
388308,-93
388316,-204
388324,-212
388332,162
388340,779
388348,1028
388356,543
388364,-290
388372,-788
388380,-742
388388,-490
388396,-349
388404,-316
388412,-281
388420,-233
388428,-179
388436,-134
388444,-124
388452,-143
388460,-150
388468,-135
388476,-106
388484,-85
388492,-76
388500,-70
388508,-58
388516,-41
388524,-29
388532,-23
388540,-17
388548,-16
388556,-31
388564,-61
388572,-74
388580,-67
388588,-60
388596,-56
388604,-59
388612,-58
388620,-74
388628,-112
388636,-178
388644,-243
388652,-286
388660,-300
388668,-293
388676,-273
388684,-249
388692,-227
388700,-206
388708,-185
388716,-178
388724,-189
388732,-206
388740,-203
388748,-188
388756,-183
388764,-201
388772,-219
388780,-208
388788,-177
388796,-148
388804,-131
388812,-129
388820,-135
388828,-148
388836,-160
388844,-172
388852,-179
388860,-176
388868,-166
388876,-160
388884,-161
388892,-158
388900,-153
388908,-151
388916,-160
388924,-173
388932,-180
388940,-178
388948,-179
388956,-176
388964,-175
388972,-181
388980,-193
388988,-203
388996,-202
389004,-190
389012,-182
389020,-183
389028,-187
389036,-191
389044,-191
389052,-190
389060,-191
389068,-200
389076,-210
389084,-210
389092,-204
389100,-199
389108,-198
389116,-204
389124,-206
389132,-204
389140,-201
389148,-207
389156,-215
389164,-224
389172,-226
389180,-220
389188,-207
389196,-191
389204,-181
389212,-189
389220,-217
389228,-236
389236,-236
389244,-228
389252,-205
389260,-174
389268,-192
389276,-300
389284,-324
389292,53
389300,698
389308,981
389316,495
389324,-372
389332,-898
389340,-855
389348,-591
389356,-447
389364,-415
389372,-387
389380,-358
389388,-322
389396,-255
389404,-207
389412,-199
389420,-203
389428,-187
389436,-160
389444,-137
389452,-122
389460,-116
389468,-109
389476,-96
389484,-85
389492,-71
389500,-56
389508,-24
389516,16
389524,51
389532,73
389540,86
389548,97
389556,110
389564,121
389572,132
389580,132
389588,102
389596,52
389604,7
389612,-15
389620,-19
389628,-14
389636,0
389644,26
389652,59
389660,95
389668,124
389676,138
389684,137
389692,136
389700,157
389708,186
389716,184
389724,149
389732,111
389740,101
389748,121
389756,154
389764,181
389772,195
389780,190
389788,185
389796,186
389804,190
389812,188
389820,182
389828,178
389836,185
389844,201
389852,209
389860,196
389868,174
389876,158
389884,151
389892,153
389900,154
389908,153
389916,153
389924,150
389932,145
389940,139
389948,133
389956,133
389964,130
389972,126
389980,119
389988,122
389996,133
390004,133
390012,130
390020,130
390028,130
390036,131
390044,134
390052,137
390060,142
390068,134
390076,124
390084,115
390092,106
390100,97
390108,90
390116,84
390124,88
390132,90
390140,91
390148,82
390156,65
390164,38
390172,19
390180,6
390188,9
390196,26
390204,46
390212,11
390220,-112
390228,-109
390236,303
390244,924
390252,1116
390260,566
390268,-285
390276,-745
390284,-671
390292,-422
390300,-294
390308,-264
390316,-228
390324,-184
390332,-126
390340,-78
390348,-79
390356,-114
390364,-143
390372,-140
390380,-117
390388,-94
390396,-88
390404,-91
390412,-81
390420,-53
390428,-19
390436,12
390444,36
390452,58
390460,62
390468,43
390476,21
390484,15
390492,25
390500,34
390508,35
390516,24
390524,-2
390532,-45
390540,-102
390548,-161
390556,-206
390564,-222
390572,-218
390580,-201
390588,-184
390596,-163
390604,-137
390612,-110
390620,-97
390628,-102
390636,-113
390644,-117
390652,-109
390660,-111
390668,-126
390676,-137
390684,-132
390692,-111
390700,-82
390708,-56
390716,-47
390724,-54
390732,-75
390740,-93
390748,-104
390756,-117
390764,-121
390772,-122
390780,-114
390788,-99
390796,-76
390804,-57
390812,-55
390820,-63
390828,-71
390836,-78
390844,-77
390852,-81
390860,-84
390868,-89
390876,-93
390884,-101
390892,-108
390900,-108
390908,-100
390916,-94
390924,-92
390932,-93
390940,-85
390948,-75
390956,-68
390964,-65
390972,-63
390980,-65
390988,-65
390996,-62
391004,-51
391012,-48
391020,-53
391028,-68
391036,-85
391044,-93
391052,-92
391060,-89
391068,-93
391076,-104
391084,-108
391092,-105
391100,-101
391108,-106
391116,-107
391124,-101
391132,-87
391140,-73
391148,-74
391156,-84
391164,-98
391172,-96
391180,-95
391188,-91
391196,-65
391204,-39
391212,-76
391220,-194
391228,-162
391236,273
391244,859
391252,971
391260,379
391268,-424
391276,-809
391284,-696
391292,-460
391300,-352
391308,-327
391316,-281
391324,-241
391332,-190
391340,-155
391348,-164
391356,-194
391364,-213
391372,-208
391380,-187
391388,-167
391396,-154
391404,-156
391412,-158
391420,-164
391428,-163
391436,-148
391444,-125
391452,-110
391460,-116
391468,-142
391476,-156
391484,-148
391492,-127
391500,-119
391508,-132
391516,-158
391524,-196
391532,-245
391540,-301
391548,-349
391556,-384
391564,-390
391572,-385
391580,-383
391588,-379
391596,-360
391604,-339
391612,-315
391620,-297
391628,-291
391636,-287
391644,-262
391652,-234
391660,-224
391668,-240
391676,-266
391684,-266
391692,-240
391700,-210
391708,-191
391716,-185
391724,-188
391732,-197
391740,-213
391748,-223
391756,-222
391764,-211
391772,-197
391780,-188
391788,-178
391796,-168
391804,-163
391812,-165
391820,-172
391828,-172
391836,-169
391844,-165
391852,-170
391860,-185
391868,-209
391876,-224
391884,-234
391892,-243
391900,-252
391908,-256
391916,-254
391924,-238
391932,-239
391940,-246
391948,-252
391956,-243
391964,-238
391972,-237
391980,-242
391988,-239
391996,-239
392004,-243
392012,-251
392020,-241
392028,-226
392036,-217
392044,-223
392052,-231
392060,-226
392068,-210
392076,-192
392084,-197
392092,-221
392100,-244
392108,-249
392116,-246
392124,-243
392132,-222
392140,-196
392148,-243
392156,-352
392164,-227
392172,341
392180,948
392188,906
392196,137
392204,-683
392212,-935
392220,-702
392228,-443
392236,-355
392244,-324
392252,-277
392260,-233
392268,-160
392276,-76
392284,-32
392292,-21
392300,-2
392308,38
392316,82
392324,111
392332,130
392340,140
392348,157
392356,178
392364,200
392372,222
392380,242
392388,267
392396,298
392404,325
392412,347
392420,369
392428,388
392436,388
392444,376
392452,356
392460,314
392468,251
392476,180
392484,129
392492,109
392500,106
392508,104
392516,102
392524,111
392532,136
392540,168
392548,179
392556,169
392564,159
392572,183
392580,215
392588,222
392596,192
392604,150
392612,121
392620,108
392628,114
392636,130
392644,148
392652,151
392660,154
392668,159
392676,168
392684,167
392692,163
392700,161
392708,169
392716,174
392724,172
392732,164
392740,158
392748,155
392756,157
392764,153
392772,149
392780,143
392788,143
392796,143
392804,141
392812,137
392820,136
392828,139
392836,137
392844,131
392852,128
392860,127
392868,130
392876,132
392884,131
392892,137
392900,137
392908,134
392916,129
392924,124
392932,118
392940,112
392948,103
392956,91
392964,84
392972,84
392980,96
392988,107
392996,101
393004,74
393012,42
393020,24
393028,14
393036,8
393044,29
393052,39
393060,-29
393068,-146
393076,-11
393084,543
393092,1094
393100,1011
393108,256
393116,-533
393124,-789
393132,-596
393140,-366
393148,-284
393156,-259
393164,-220
393172,-169
393180,-107
393188,-71
393196,-87
393204,-124
393212,-131
393220,-114
393228,-92
393236,-83
393244,-86
393252,-87
393260,-76
393268,-54
393276,-27
393284,2
393292,22
393300,35
393308,25
393316,8
393324,1
393332,16
393340,37
393348,47
393356,43
393364,27
393372,-8
393380,-65
393388,-131
393396,-183
393404,-206
393412,-204
393420,-195
393428,-183
393436,-165
393444,-147
393452,-121
393460,-98
393468,-90
393476,-102
393484,-122
393492,-123
393500,-112
393508,-111
393516,-127
393524,-134
393532,-127
393540,-106
393548,-80
393556,-57
393564,-47
393572,-49
393580,-64
393588,-79
393596,-89
393604,-98
393612,-101
393620,-102
393628,-108
393636,-103
393644,-86
393652,-72
393660,-71
393668,-78
393676,-76
393684,-71
393692,-74
393700,-84
393708,-91
393716,-98
393724,-103
393732,-105
393740,-104
393748,-102
393756,-97
393764,-94
393772,-96
393780,-97
393788,-91
393796,-84
393804,-83
393812,-90
393820,-99
393828,-98
393836,-97
393844,-93
393852,-90
393860,-89
393868,-87
393876,-93
393884,-96
393892,-97
393900,-95
393908,-94
393916,-98
393924,-104
393932,-106
393940,-100
393948,-88
393956,-77
393964,-67
393972,-67
393980,-79
393988,-97
393996,-105
394004,-103
394012,-87
394020,-59
394028,-79
394036,-190
394044,-235
394052,91
394060,695
394068,990
394076,563
394084,-260
394092,-804
394100,-806
394108,-569
394116,-417
394124,-378
394132,-344
394140,-306
394148,-259
394156,-207
394164,-189
394172,-206
394180,-232
394188,-236
394196,-220
394204,-206
394212,-193
394220,-192
394228,-190
394236,-174
394244,-156
394252,-153
394260,-156
394268,-157
394276,-155
394284,-159
394292,-163
394300,-155
394308,-128
394316,-109
394324,-102
394332,-106
394340,-123
394348,-158
394356,-207
394364,-258
394372,-299
394380,-325
394388,-332
394396,-326
394404,-306
394412,-289
394420,-272
394428,-258
394436,-251
394444,-256
394452,-253
394460,-230
394468,-194
394476,-187
394484,-224
394492,-266
394500,-279
394508,-259
394516,-230
394524,-207
394532,-185
394540,-176
394548,-187
394556,-202
394564,-209
394572,-212
394580,-215
394588,-221
394596,-222
394604,-218
394612,-213
394620,-206
394628,-204
394636,-207
394644,-208
394652,-208
394660,-209
394668,-210
394676,-214
394684,-215
394692,-208
394700,-203
394708,-196
394716,-193
394724,-197
394732,-200
394740,-198
394748,-193
394756,-191
394764,-195
394772,-194
394780,-185
394788,-177
394796,-170
394804,-169
394812,-170
394820,-166
394828,-162
394836,-158
394844,-159
394852,-164
394860,-165
394868,-170
394876,-175
394884,-179
394892,-170
394900,-150
394908,-132
394916,-128
394924,-146
394932,-167
394940,-171
394948,-174
394956,-169
394964,-150
394972,-146
394980,-231
394988,-320
394996,-90
395004,538
395012,1022
395020,778
395028,-70
395036,-776
395044,-878
395052,-610
395060,-390
395068,-330
395076,-316
395084,-300
395092,-277
395100,-209
395108,-135
395116,-105
395124,-119
395132,-125
395140,-102
395148,-70
395156,-42
395164,-26
395172,-15
395180,-4
395188,4
395196,17
395204,32
395212,50
395220,73
395228,92
395236,102
395244,110
395252,120
395260,127
395268,122
395276,123
395284,125
395292,114
395300,71
395308,16
395316,-29
395324,-34
395332,-19
395340,4
395348,26
395356,51
395364,84
395372,108
395380,113
395388,105
395396,117
395404,152
395412,182
395420,180
395428,158
395436,130
395444,113
395452,108
395460,120
395468,141
395476,154
395484,157
395492,167
395500,187
395508,196
395516,187
395524,175
395532,171
395540,183
395548,195
395556,198
395564,185
395572,162
395580,155
395588,166
395596,183
395604,195
395612,197
395620,191
395628,188
395636,188
395644,192
395652,193
395660,184
395668,175
395676,171
395684,171
395692,173
395700,180
395708,177
395716,175
395724,180
395732,189
395740,196
395748,193
395756,187
395764,182
395772,181
395780,183
395788,189
395796,201
395804,210
395812,207
395820,189
395828,166
395836,152
395844,153
395852,151
395860,162
395868,187
395876,172
395884,56
395892,-24
395900,248
395908,869
395916,1256
395924,907
395932,65
395940,-558
395948,-619
395956,-382
395964,-218
395972,-177
395980,-146
395988,-103
395996,-59
396004,0
396012,31
396020,14
396028,-23
396036,-40
396044,-37
396052,-24
396060,-17
396068,-18
396076,-17
396084,-5
396092,18
396100,42
396108,67
396116,87
396124,98
396132,86
396140,68
396148,58
396156,65
396164,71
396172,75
396180,65
396188,45
396196,6
396204,-57
396212,-124
396220,-170
396228,-199
396236,-206
396244,-202
396252,-184
396260,-160
396268,-137
396276,-115
396284,-101
396292,-101
396300,-112
396308,-118
396316,-106
396324,-98
396332,-111
396340,-136
396348,-144
396356,-132
396364,-112
396372,-93
396380,-77
396388,-69
396396,-71
396404,-85
396412,-103
396420,-118
396428,-124
396436,-127
396444,-123
396452,-120
396460,-105
396468,-82
396476,-70
396484,-79
396492,-98
396500,-108
396508,-105
396516,-100
396524,-96
396532,-99
396540,-106
396548,-117
396556,-127
396564,-130
396572,-117
396580,-111
396588,-107
396596,-107
396604,-102
396612,-95
396620,-98
396628,-103
396636,-105
396644,-103
396652,-105
396660,-111
396668,-116
396676,-119
396684,-117
396692,-113
396700,-114
396708,-111
396716,-114
396724,-115
396732,-113
396740,-119
396748,-129
396756,-125
396764,-108
396772,-88
396780,-81
396788,-93
396796,-111
396804,-127
396812,-131
396820,-133
396828,-131
396836,-114
396844,-107
396852,-184
396860,-289
396868,-135
396876,417
396884,930
396892,817
396900,76
396908,-664
396916,-883
396924,-689
396932,-477
396940,-407
396948,-380
396956,-330
396964,-280
396972,-229
396980,-209
396988,-217
396996,-231
397004,-225
397012,-202
397020,-173
397028,-154
397036,-142
397044,-132
397052,-117
397060,-108
397068,-104
397076,-102
397084,-93
397092,-95
397100,-114
397108,-143
397116,-146
397124,-128
397132,-114
397140,-123
397148,-132
397156,-147
397164,-167
397172,-209
397180,-259
397188,-303
397196,-323
397204,-332
397212,-333
397220,-317
397228,-290
397236,-258
397244,-229
397252,-210
397260,-207
397268,-217
397276,-218
397284,-197
397292,-177
397300,-184
397308,-212
397316,-228
397324,-214
397332,-189
397340,-160
397348,-142
397356,-137
397364,-151
397372,-171
397380,-186
397388,-191
397396,-185
397404,-180
397412,-184
397420,-185
397428,-183
397436,-171
397444,-166
397452,-166
397460,-162
397468,-153
397476,-147
397484,-147
397492,-143
397500,-137
397508,-141
397516,-148
397524,-156
397532,-160
397540,-163
397548,-168
397556,-173
397564,-170
397572,-165
397580,-161
397588,-164
397596,-166
397604,-167
397612,-161
397620,-160
397628,-161
397636,-166
397644,-161
397652,-160
397660,-167
397668,-167
397676,-162
397684,-150
397692,-152
397700,-164
397708,-167
397716,-149
397724,-129
397732,-121
397740,-133
397748,-148
397756,-144
397764,-132
397772,-125
397780,-102
397788,-74
397796,-100
397804,-215
397812,-197
397820,259
397828,936
397836,1139
397844,555
397852,-325
397860,-773
397868,-646
397876,-352
397884,-205
397892,-167
397900,-118
397908,-75
397916,-22
397924,37
397932,64
397940,57
397948,54
397956,73
397964,103
397972,128
397980,144
397988,147
397996,151
398004,155
398012,171
398020,185
398028,206
398036,226
398044,240
398052,244
398060,239
398068,241
398076,246
398084,237
398092,225
398100,219
398108,209
398116,169
398124,102
398132,33
398140,-7
398148,-18
398156,-9
398164,2
398172,14
398180,35
398188,59
398196,84
398204,85
398212,77
398220,81
398228,106
398236,124
398244,116
398252,90
398260,67
398268,59
398276,65
398284,86
398292,103
398300,111
398308,108
398316,110
398324,109
398332,105
398340,92
398348,81
398356,81
398364,93
398372,105
398380,115
398388,110
398396,102
398404,92
398412,85
398420,79
398428,78
398436,77
398444,74
398452,71
398460,68
398468,69
398476,67
398484,65
398492,61
398500,55
398508,54
398516,51
398524,51
398532,47
398540,40
398548,32
398556,31
398564,34
398572,29
398580,25
398588,22
398596,23
398604,20
398612,12
398620,5
398628,3
398636,-6
398644,-12
398652,-18
398660,-19
398668,-12
398676,-4
398684,-10
398692,-25
398700,-45
398708,-53
398716,-58
398724,-54
398732,-36
398740,-25
398748,-96
398756,-219
398764,-124
398772,401
398780,986
398788,981
398796,276
398804,-524
398812,-823
398820,-653
398828,-413
398836,-325
398844,-296
398852,-248
398860,-196
398868,-142
398876,-104
398884,-108
398892,-129
398900,-142
398908,-132
398916,-108
398924,-95
398932,-87
398940,-83
398948,-70
398956,-50
398964,-27
398972,-7
398980,15
398988,30
398996,29
399004,16
399012,9
399020,16
399028,27
399036,37
399044,40
399052,35
399060,12
399068,-38
399076,-99
399084,-150
399092,-184
399100,-201
399108,-207
399116,-200
399124,-178
399132,-153
399140,-129
399148,-111
399156,-100
399164,-104
399172,-119
399180,-114
399188,-99
399196,-98
399204,-113
399212,-127
399220,-113
399228,-92
399236,-66
399244,-46
399252,-37
399260,-49
399268,-67
399276,-86
399284,-98
399292,-106
399300,-104
399308,-100
399316,-102
399324,-92
399332,-75
399340,-55
399348,-56
399356,-69
399364,-84
399372,-86
399380,-78
399388,-73
399396,-86
399404,-98
399412,-108
399420,-109
399428,-112
399436,-111
399444,-115
399452,-116
399460,-118
399468,-114
399476,-110
399484,-109
399492,-120
399500,-126
399508,-126
399516,-126
399524,-130
399532,-135
399540,-138
399548,-141
399556,-140
399564,-142
399572,-147
399580,-158
399588,-167
399596,-169
399604,-166
399612,-161
399620,-153
399628,-155
399636,-162
399644,-167
399652,-165
399660,-165
399668,-168
399676,-177
399684,-186
399692,-181
399700,-180
399708,-177
399716,-157
399724,-142
399732,-205
399740,-321
399748,-219
399756,302
399764,873
399772,856
399780,144
399788,-649
399796,-948
399804,-783
399812,-551
399820,-465
399828,-440
399836,-404
399844,-364
399852,-308
399860,-254
399868,-245
399876,-260
399884,-263
399892,-244
399900,-218
399908,-198
399916,-192
399924,-193
399932,-193
399940,-186
399948,-178
399956,-179
399964,-182
399972,-183
399980,-186
399988,-196
399996,-203
400004,-194
400012,-175
400020,-164
400028,-159
400036,-157
400044,-165
400052,-194
400060,-248
400068,-301
400076,-333
400084,-345
400092,-332
400100,-304
400108,-276
400116,-253
400124,-228
400132,-206
400140,-191
400148,-192
400156,-192
400164,-171
400172,-141
400180,-138
400188,-179
400196,-223
400204,-247
400212,-234
400220,-199
400228,-165
400236,-148
400244,-154
400252,-174
400260,-183
400268,-179
400276,-163
400284,-154
400292,-157
400300,-175
400308,-184
400316,-182
400324,-169
400332,-166
400340,-179
400348,-197
400356,-201
400364,-203
400372,-201
400380,-202
400388,-201
400396,-206
400404,-213
400412,-219
400420,-217
400428,-214
400436,-213
400444,-217
400452,-215
400460,-210
400468,-208
400476,-211
400484,-213
400492,-211
400500,-210
400508,-210
400516,-219
400524,-228
400532,-233
400540,-222
400548,-207
400556,-202
400564,-207
400572,-206
400580,-182
400588,-147
400596,-126
400604,-126
400612,-150
400620,-167
400628,-165
400636,-154
400644,-142
400652,-107
400660,-78
400668,-130
400676,-252
400684,-148
400692,422
400700,1065
400708,1063
400716,290
400724,-584
400732,-890
400740,-673
400748,-397
400756,-295
400764,-259
400772,-215
400780,-175
400788,-114
400796,-41
400804,-8
400812,-13
400820,-21
400828,0
400836,33
400844,57
400852,70
400860,81
400868,87
400876,90
400884,86
400892,84
400900,94
400908,121
400916,159
400924,182
400932,186
400940,195
400948,208
400956,227
400964,233
400972,226
400980,205
400988,155
400996,91
401004,29
401012,-4
401020,-11
401028,-2
401036,13
401044,31
401052,63
401060,101
401068,129
401076,128
401084,110
401092,117
401100,146
401108,166
401116,151
401124,111
401132,80
401140,75
401148,95
401156,125
401164,146
401172,148
401180,141
401188,141
401196,145
401204,139
401212,132
401220,129
401228,132
401236,136
401244,130
401252,117
401260,107
401268,105
401276,118
401284,128
401292,129
401300,126
401308,124
401316,117
401324,116
401332,119
401340,126
401348,124
401356,120
401364,118
401372,125
401380,136
401388,144
401396,140
401404,134
401412,123
401420,125
401428,129
401436,130
401444,127
401452,124
401460,124
401468,128
401476,130
401484,127
401492,129
401500,140
401508,154
401516,161
401524,160
401532,148
401540,141
401548,139
401556,146
401564,168
401572,210
401580,208
401588,103
401596,23
401604,320
401612,980
401620,1384
401628,990
401636,56
401644,-644
401652,-711
401660,-430
401668,-225
401676,-168
401684,-131
401692,-79
401700,-25
401708,40
401716,75
401724,56
401732,21
401740,2
401748,13
401756,35
401764,61
401772,75
401780,82
401788,84
401796,95
401804,112
401812,125
401820,136
401828,132
401836,112
401844,92
401852,92
401860,113
401868,135
401876,135
401884,129
401892,112
401900,75
401908,10
401916,-61
401924,-114
401932,-136
401940,-140
401948,-136
401956,-123
401964,-98
401972,-75
401980,-47
401988,-28
401996,-18
402004,-30
402012,-46
402020,-43
402028,-26
402036,-28
402044,-55
402052,-77
402060,-77
402068,-67
402076,-53
402084,-43
402092,-36
402100,-41
402108,-49
402116,-57
402124,-66
402132,-81
402140,-92
402148,-91
402156,-75
402164,-58
402172,-47
402180,-53
402188,-69
402196,-81
402204,-88
402212,-88
402220,-91
402228,-97
402236,-102
402244,-106
402252,-106
402260,-105
402268,-100
402276,-96
402284,-90
402292,-91
402300,-102
402308,-107
402316,-103
402324,-95
402332,-95
402340,-101
402348,-105
402356,-103
402364,-101
402372,-100
402380,-103
402388,-106
402396,-112
402404,-114
402412,-111
402420,-113
402428,-118
402436,-122
402444,-113
402452,-107
402460,-113
402468,-127
402476,-132
402484,-122
402492,-101
402500,-85
402508,-84
402516,-95
402524,-109
402532,-115
402540,-115
402548,-106
402556,-80
402564,-73
402572,-150
402580,-248
402588,-78
402596,486
402604,1001
402612,876
402620,112
402628,-635
402636,-851
402644,-646
402652,-423
402660,-341
402668,-307
402676,-254
402684,-204
402692,-150
402700,-117
402708,-131
402716,-156
402724,-166
402732,-148
402740,-121
402748,-106
402756,-100
402764,-98
402772,-88
402780,-77
402788,-68
402796,-51
402804,-32
402812,-18
402820,-31
402828,-49
402836,-46
402844,-28
402852,-6
402860,2
402868,0
402876,-11
402884,-40
402892,-92
402900,-162
402908,-221
402916,-254
402924,-261
402932,-257
402940,-246
402948,-227
402956,-204
402964,-185
402972,-168
402980,-162
402988,-168
402996,-178
403004,-173
403012,-159
403020,-160
403028,-176
403036,-187
403044,-178
403052,-154
403060,-140
403068,-133
403076,-134
403084,-139
403092,-145
403100,-162
403108,-180
403116,-187
403124,-176
403132,-158
403140,-154
403148,-156
403156,-149
403164,-141
403172,-144
403180,-158
403188,-181
403196,-187
403204,-183
403212,-169
403220,-165
403228,-171
403236,-180
403244,-186
403252,-188
403260,-190
403268,-188
403276,-183
403284,-183
403292,-187
403300,-192
403308,-192
403316,-189
403324,-190
403332,-192
403340,-202
403348,-207
403356,-210
403364,-203
403372,-195
403380,-196
403388,-201
403396,-210
403404,-217
403412,-222
403420,-224
403428,-226
403436,-233
403444,-235
403452,-222
403460,-201
403468,-191
403476,-200
403484,-213
403492,-209
403500,-200
403508,-200
403516,-188
403524,-156
403532,-156
403540,-252
403548,-319
403556,-28
403564,618
403572,1023
403580,665
403588,-207
403596,-840
403604,-871
403612,-595
403620,-413
403628,-374
403636,-340
403644,-291
403652,-247
403660,-182
403668,-130
403676,-118
403684,-121
403692,-112
403700,-90
403708,-68
403716,-57
403724,-54
403732,-56
403740,-50
403748,-44
403756,-31
403764,-23
403772,-9
403780,9
403788,21
403796,32
403804,41
403812,53
403820,68
403828,77
403836,81
403844,78
403852,58
403860,16
403868,-37
403876,-82
403884,-102
403892,-106
403900,-99
403908,-73
403916,-40
403924,-3
403932,30
403940,48
403948,47
403956,48
403964,68
403972,97
403980,106
403988,83
403996,59
404004,50
404012,62
404020,85
404028,106
404036,112
404044,110
404052,108
404060,114
404068,121
404076,122
404084,117
404092,118
404100,117
404108,116
404116,111
404124,107
404132,94
404140,82
404148,80
404156,88
404164,94
404172,95
404180,97
404188,95
404196,88
404204,78
404212,71
404220,77
404228,85
404236,91
404244,91
404252,89
404260,86
404268,83
404276,80
404284,79
404292,79
404300,77
404308,73
404316,68
404324,66
404332,63
404340,60
404348,53
404356,53
404364,51
404372,49
404380,54
404388,68
404396,85
404404,84
404412,66
404420,55
404428,55
404436,59
404444,72
404452,102
404460,87
404468,-32
404476,-99
404484,219
404492,873
404500,1229
404508,809
404516,-79
404524,-692
404532,-707
404540,-441
404548,-273
404556,-226
404564,-190
404572,-145
404580,-98
404588,-40
404596,-11
404604,-34
404612,-68
404620,-81
404628,-67
404636,-48
404644,-39
404652,-35
404660,-30
404668,-16
404676,-3
404684,14
404692,31
404700,52
404708,57
404716,44
404724,25
404732,28
404740,46
404748,57
404756,54
404764,47
404772,36
404780,7
404788,-48
404796,-115
404804,-170
404812,-195
404820,-200
404828,-194
404836,-179
404844,-153
404852,-123
404860,-98
404868,-77
404876,-77
404884,-88
404892,-98
404900,-92
404908,-81
404916,-88
404924,-103
404932,-112
404940,-102
404948,-81
404956,-56
404964,-49
404972,-54
404980,-65
404988,-77
404996,-86
405004,-93
405012,-98
405020,-94
405028,-90
405036,-84
405044,-73
405052,-60
405060,-55
405068,-64
405076,-78
405084,-85
405092,-86
405100,-81
405108,-80
405116,-84
405124,-87
405132,-92
405140,-94
405148,-94
405156,-92
405164,-91
405172,-86
405180,-84
405188,-78
405196,-73
405204,-75
405212,-79
405220,-82
405228,-80
405236,-79
405244,-84
405252,-88
405260,-87
405268,-87
405276,-88
405284,-88
405292,-87
405300,-86
405308,-86
405316,-89
405324,-88
405332,-81
405340,-71
405348,-63
405356,-61
405364,-72
405372,-92
405380,-103
405388,-108
405396,-107
405404,-91
405412,-65
405420,-92
405428,-209
405436,-211
405444,189
405452,803
405460,1005
405468,468
405476,-375
405484,-844
405492,-782
405500,-542
405508,-419
405516,-384
405524,-334
405532,-275
405540,-219
405548,-175
405556,-165
405564,-182
405572,-195
405580,-194
405588,-185
405596,-175
405604,-170
405612,-170
405620,-159
405628,-150
405636,-140
405644,-129
405652,-112
405660,-92
405668,-89
405676,-105
405684,-125
405692,-121
405700,-100
405708,-78
405716,-70
405724,-75
405732,-93
405740,-125
405748,-174
405756,-226
405764,-275
405772,-304
405780,-322
405788,-321
405796,-300
405804,-265
405812,-231
405820,-204
405828,-187
405836,-188
405844,-196
405852,-182
405860,-155
405868,-152
405876,-181
405884,-210
405892,-206
405900,-175
405908,-147
405916,-139
405924,-141
405932,-146
405940,-142
405948,-144
405956,-153
405964,-164
405972,-161
405980,-147
405988,-141
405996,-149
406004,-153
406012,-146
406020,-136
406028,-144
406036,-158
406044,-160
406052,-157
406060,-154
406068,-160
406076,-163
406084,-166
406092,-173
406100,-181
406108,-179
406116,-170
406124,-165
406132,-168
406140,-171
406148,-173
406156,-168
406164,-159
406172,-155
406180,-159
406188,-166
406196,-173
406204,-175
406212,-169
406220,-163
406228,-162
406236,-167
406244,-173
406252,-173
406260,-168
406268,-166
406276,-162
406284,-148
406292,-140
406300,-164
406308,-207
406316,-232
406324,-223
406332,-195
406340,-161
406348,-144
406356,-192
406364,-300
406372,-206
406380,326
406388,937
406396,951
406404,225
406412,-629
406420,-955
406428,-767
406436,-501
406444,-402
406452,-375
406460,-344
406468,-309
406476,-252
406484,-177
406492,-138
406500,-140
406508,-153
406516,-145
406524,-116
406532,-87
406540,-66
406548,-61
406556,-63
406564,-62
406572,-47
406580,-36
406588,-25
406596,-4
406604,21
406612,34
406620,42
406628,54
406636,69
406644,75
406652,77
406660,75
406668,73
406676,48
406684,0
406692,-46
406700,-74
406708,-84
406716,-73
406724,-54
406732,-27
406740,5
406748,44
406756,76
406764,87
406772,86
406780,90
406788,118
406796,143
406804,139
406812,109
406820,85
406828,78
406836,95
406844,128
406852,147
406860,152
406868,145
406876,138
406884,136
406892,141
406900,141
406908,145
406916,146
406924,146
406932,150
406940,153
406948,151
406956,143
406964,129
406972,120
406980,114
406988,120
406996,125
407004,121
407012,112
407020,115
407028,118
407036,114
407044,108
407052,102
407060,98
407068,99
407076,100
407084,103
407092,106
407100,108
407108,114
407116,117
407124,118
407132,119
407140,124
407148,128
407156,124
407164,121
407172,130
407180,138
407188,137
407196,119
407204,99
407212,94
407220,100
407228,106
407236,127
407244,151
407252,114
407260,-19
407268,-23
407276,414
407284,1083
407292,1292
407300,705
407308,-197
407316,-680
407324,-584
407332,-308
407340,-171
407348,-142
407356,-105
407364,-63
407372,-4
407380,57
407388,74
407396,46
407404,15
407412,9
407420,21
407428,36
407436,40
407444,33
407452,27
407460,30
407468,49
407476,69
407484,91
407492,102
407500,102
407508,92
407516,91
407524,101
407532,117
407540,120
407548,116
407556,104
407564,83
407572,31
407580,-46
407588,-124
407596,-175
407604,-196
407612,-195
407620,-179
407628,-148
407636,-125
407644,-108
407652,-94
407660,-76
407668,-71
407676,-82
407684,-92
407692,-85
407700,-77
407708,-88
407716,-108
407724,-117
407732,-117
407740,-106
407748,-84
407756,-62
407764,-50
407772,-59
407780,-66
407788,-68
407796,-73
407804,-83
407812,-95
407820,-101
407828,-92
407836,-75
407844,-55
407852,-50
407860,-63
407868,-80
407876,-82
407884,-76
407892,-77
407900,-85
407908,-95
407916,-101
407924,-102
407932,-99
407940,-99
407948,-104
407956,-103
407964,-100
407972,-101
407980,-101
407988,-95
407996,-83
408004,-78
408012,-80
408020,-90
408028,-94
408036,-96
408044,-97
408052,-96
408060,-91
408068,-92
408076,-95
408084,-98
408092,-93
408100,-85
408108,-84
408116,-84
408124,-89
408132,-93
408140,-96
408148,-98
408156,-93
408164,-85
408172,-70
408180,-67
408188,-77
408196,-98
408204,-114
408212,-115
408220,-112
408228,-106
408236,-77
408244,-60
408252,-128
408260,-235
408268,-96
408276,457
408284,1000
408292,910
408300,154
408308,-610
408316,-843
408324,-638
408332,-408
408340,-334
408348,-303
408356,-250
408364,-193
408372,-136
408380,-103
408388,-112
408396,-135
408404,-146
408412,-134
408420,-110
408428,-90
408436,-83
408444,-84
408452,-78
408460,-59
408468,-37
408476,-18
408484,-11
408492,-12
408500,-21
408508,-35
408516,-34
408524,-17
408532,-1
408540,3
408548,-4
408556,-12
408564,-35
408572,-81
408580,-147
408588,-208
408596,-247
408604,-270
408612,-276
408620,-266
408628,-243
408636,-219
408644,-193
408652,-169
408660,-158
408668,-173
408676,-192
408684,-195
408692,-180
408700,-182
408708,-197
408716,-203
408724,-182
408732,-156
408740,-139
408748,-136
408756,-134
408764,-140
408772,-144
408780,-149
408788,-154
408796,-153
408804,-151
408812,-156
408820,-163
408828,-163
408836,-153
408844,-133
408852,-127
408860,-136
408868,-145
408876,-147
408884,-148
408892,-149
408900,-152
408908,-158
408916,-169
408924,-180
408932,-184
408940,-178
408948,-173
408956,-166
408964,-162
408972,-160
408980,-158
408988,-158
408996,-160
409004,-171
409012,-183
409020,-197
409028,-210
409036,-212
409044,-209
409052,-205
409060,-204
409068,-215
409076,-225
409084,-216
409092,-201
409100,-190
409108,-196
409116,-206
409124,-211
409132,-210
409140,-203
409148,-205
409156,-202
409164,-191
409172,-170
409180,-153
409188,-152
409196,-167
409204,-187
409212,-195
409220,-193
409228,-197
409236,-191
409244,-182
409252,-208
409260,-318
409268,-349
409276,21
409284,696
409292,1024
409300,564
409308,-328
409316,-892
409324,-862
409332,-578
409340,-422
409348,-388
409356,-356
409364,-323
409372,-288
409380,-222
409388,-169
409396,-150
409404,-150
409412,-143
409420,-126
409428,-113
409436,-98
409444,-95
409452,-87
409460,-78
409468,-68
409476,-63
409484,-65
409492,-66
409500,-49
409508,-28
409516,-18
409524,-20
409532,-15
409540,-3
409548,-2
409556,-5
409564,-25
409572,-60
409580,-115
409588,-177
409596,-225
409604,-244
409612,-246
409620,-237
409628,-223
409636,-193
409644,-157
409652,-120
409660,-93
409668,-87
409676,-91
409684,-86
409692,-66
409700,-42
409708,-43
409716,-64
409724,-83
409732,-72
409740,-29
409748,19
409756,46
409764,50
409772,50
409780,55
409788,69
409796,81
409804,92
409812,95
409820,93
409828,94
409836,106
409844,116
409852,117
409860,114
409868,112
409876,119
409884,130
409892,139
409900,143
409908,132
409916,125
409924,121
409932,117
409940,115
409948,113
409956,116
409964,121
409972,122
409980,116
409988,112
409996,111
410004,114
410012,117
410020,112
410028,101
410036,94
410044,95
410052,99
410060,105
410068,106
410076,108
410084,106
410092,98
410100,86
410108,80
410116,89
410124,104
410132,116
410140,115
410148,97
410156,80
410164,71
410172,63
410180,69
410188,98
410196,105
410204,13
410212,-83
410220,154
410228,802
410236,1294
410244,1032
410252,154
410260,-586
410268,-719
410276,-468
410284,-248
410292,-181
410300,-141
410308,-101
410316,-64
410324,-14
410332,22
410340,13
410348,-12
410356,-27
410364,-17
410372,-5
410380,1
410388,3
410396,13
410404,22
410412,34
410420,47
410428,55
410436,74
410444,89
410452,93
410460,86
410468,83
410476,91
410484,109
410492,118
410500,120
410508,110
410516,81
410524,25
410532,-45
410540,-108
410548,-147
410556,-168
410564,-169
410572,-152
410580,-121
410588,-87
410596,-56
410604,-38
410612,-24
410620,-27
410628,-36
410636,-41
410644,-22
410652,-3
410660,-12
410668,-41
410676,-56
410684,-46
410692,-20
410700,0
410708,6
410716,2
410724,-4
410732,-10
410740,-20
410748,-33
410756,-38
410764,-31
410772,-21
410780,-14
410788,-7
410796,2
410804,-1
410812,-17
410820,-31
410828,-32
410836,-27
410844,-31
410852,-40
410860,-39
410868,-42
410876,-44
410884,-49
410892,-49
410900,-38
410908,-34
410916,-35
410924,-44
410932,-52
410940,-44
410948,-38
410956,-35
410964,-39
410972,-43
410980,-47
410988,-47
410996,-41
411004,-37
411012,-38
411020,-41
411028,-40
411036,-37
411044,-30
411052,-29
411060,-30
411068,-29
411076,-30
411084,-31
411092,-34
411100,-36
411108,-37
411116,-41
411124,-48
411132,-53
411140,-60
411148,-60
411156,-50
411164,-31
411172,-16
411180,-13
411188,-28
411196,-58
411204,-78
411212,-82
411220,-79
411228,-61
411236,-41
411244,-66
411252,-180
411260,-208
411268,161
411276,798
411284,1087
411292,614
411300,-254
411308,-800
411316,-777
411324,-515
411332,-356
411340,-315
411348,-274
411356,-229
411364,-182
411372,-128
411380,-96
411388,-105
411396,-126
411404,-137
411412,-124
411420,-99
411428,-80
411436,-81
411444,-77
411452,-66
411460,-51
411468,-34
411476,-13
411484,4
411492,10
411500,-2
411508,-11
411516,-9
411524,5
411532,14
411540,12
411548,3
411556,-8
411564,-32
411572,-79
411580,-147
411588,-203
411596,-243
411604,-256
411612,-255
411620,-247
411628,-228
411636,-203
411644,-177
411652,-161
411660,-159
411668,-167
411676,-165
411684,-147
411692,-135
411700,-139
411708,-152
411716,-154
411724,-142
411732,-128
411740,-115
411748,-109
411756,-108
411764,-111
411772,-115
411780,-118
411788,-132
411796,-144
411804,-148
411812,-141
411820,-134
411828,-123
411836,-112
411844,-104
411852,-119
411860,-133
411868,-139
411876,-127
411884,-124
411892,-133
411900,-140
411908,-145
411916,-155
411924,-165
411932,-167
411940,-157
411948,-145
411956,-135
411964,-138
411972,-144
411980,-155
411988,-170
411996,-179
412004,-178
412012,-174
412020,-174
412028,-183
412036,-186
412044,-188
412052,-193
412060,-194
412068,-192
412076,-181
412084,-174
412092,-175
412100,-177
412108,-175
412116,-176
412124,-174
412132,-180
412140,-180
412148,-177
412156,-169
412164,-166
412172,-164
412180,-161
412188,-151
412196,-139
412204,-137
412212,-153
412220,-172
412228,-176
412236,-172
412244,-159
412252,-135
412260,-113
412268,-162
412276,-281
412284,-219
412292,278
412300,900
412308,968
412316,295
412324,-543
412332,-896
412340,-739
412348,-481
412356,-379
412364,-348
412372,-317
412380,-297
412388,-247
412396,-176
412404,-146
412412,-168
412420,-199
412428,-203
412436,-172
412444,-141
412452,-129
412460,-124
412468,-122
412476,-118
412484,-122
412492,-133
412500,-137
412508,-121
412516,-96
412524,-88
412532,-96
412540,-100
412548,-83
412556,-60
412564,-50
412572,-49
412580,-63
412588,-101
412596,-153
412604,-202
412612,-238
412620,-260
412628,-269
412636,-262
412644,-237
412652,-200
412660,-172
412668,-141
412676,-124
412684,-118
412692,-118
412700,-99
412708,-67
412716,-50
412724,-67
412732,-97
412740,-113
412748,-92
412756,-60
412764,-28
412772,-17
412780,-11
412788,-5
412796,5
412804,14
412812,20
412820,24
412828,31
412836,40
412844,47
412852,54
412860,60
412868,66
412876,73
412884,82
412892,88
412900,91
412908,96
412916,102
412924,106
412932,98
412940,89
412948,86
412956,93
412964,104
412972,106
412980,105
412988,108
412996,109
413004,102
413012,88
413020,84
413028,90
413036,97
413044,92
413052,76
413060,66
413068,70
413076,79
413084,84
413092,77
413100,67
413108,66
413116,63
413124,61
413132,67
413140,78
413148,87
413156,81
413164,63
413172,43
413180,36
413188,35
413196,41
413204,72
413212,93
413220,28
413228,-97
413236,17
413244,590
413252,1203
413260,1167
413268,390
413276,-467
413284,-774
413292,-569
413300,-307
413308,-207
413316,-166
413324,-124
413332,-98
413340,-52
413348,6
413356,32
413364,26
413372,11
413380,7
413388,11
413396,20
413404,30
413412,40
413420,48
413428,56
413436,68
413444,81
413452,95
413460,118
413468,134
413476,133
413484,122
413492,123
413500,139
413508,152
413516,157
413524,161
413532,157
413540,121
413548,57
413556,-15
413564,-60
413572,-83
413580,-89
413588,-88
413596,-76
413604,-53
413612,-30
413620,-3
413628,14
413636,16
413644,0
413652,-9
413660,11
413668,30
413676,16
413684,-25
413692,-57
413700,-59
413708,-42
413716,-27
413724,-20
413732,-23
413740,-37
413748,-43
413756,-35
413764,-27
413772,-29
413780,-33
413788,-28
413796,-14
413804,-1
413812,3
413820,-6
413828,-19
413836,-25
413844,-22
413852,-16
413860,-18
413868,-25
413876,-35
413884,-39
413892,-42
413900,-47
413908,-47
413916,-43
413924,-39
413932,-40
413940,-42
413948,-43
413956,-42
413964,-48
413972,-56
413980,-59
413988,-54
413996,-50
414004,-49
414012,-53
414020,-56
414028,-57
414036,-57
414044,-59
414052,-64
414060,-67
414068,-70
414076,-68
414084,-67
414092,-70
414100,-77
414108,-83
414116,-83
414124,-83
414132,-77
414140,-69
414148,-60
414156,-63
414164,-78
414172,-98
414180,-111
414188,-114
414196,-108
414204,-82
414212,-56
414220,-101
414228,-219
414236,-151
414244,344
414252,949
414260,1010
414268,341
414276,-494
414284,-855
414292,-707
414300,-455
414308,-341
414316,-309
414324,-256
414332,-211
414340,-160
414348,-120
414356,-113
414364,-128
414372,-137
414380,-128
414388,-104
414396,-86
414404,-76
414412,-81
414420,-72
414428,-61
414436,-42
414444,-22
414452,-1
414460,14
414468,14
414476,2
414484,-1
414492,9
414500,25
414508,35
414516,38
414524,37
414532,26
414540,-10
414548,-72
414556,-135
414564,-179
414572,-204
414580,-220
414588,-220
414596,-210
414604,-187
414612,-162
414620,-138
414628,-116
414636,-116
414644,-130
414652,-138
414660,-126
414668,-111
414676,-112
414684,-126
414692,-135
414700,-132
414708,-113
414716,-98
414724,-92
414732,-102
414740,-122
414748,-137
414756,-142
414764,-142
414772,-142
414780,-136
414788,-141
414796,-138
414804,-127
414812,-116
414820,-119
414828,-130
414836,-142
414844,-141
414852,-144
414860,-150
414868,-152
414876,-148
414884,-148
414892,-148
414900,-150
414908,-151
414916,-146
414924,-145
414932,-147
414940,-150
414948,-148
414956,-146
414964,-150
414972,-153
414980,-151
414988,-150
414996,-152
415004,-160
415012,-164
415020,-166
415028,-163
415036,-155
415044,-152
415052,-152
415060,-151
415068,-153
415076,-149
415084,-144
415092,-139
415100,-140
415108,-150
415116,-161
415124,-158
415132,-142
415140,-122
415148,-118
415156,-134
415164,-156
415172,-162
415180,-160
415188,-140
415196,-106
415204,-114
415212,-224
415220,-281
415228,47
415236,702
415244,1052
415252,629
415260,-247
415268,-834
415276,-825
415284,-552
415292,-384
415300,-347
415308,-323
415316,-294
415324,-252
415332,-177
415340,-131
415348,-126
415356,-141
415364,-143
415372,-132
415380,-111
415388,-98
415396,-89
415404,-92
415412,-89
415420,-84
415428,-73
415436,-65
415444,-55
415452,-48
415460,-48
415468,-54
415476,-46
415484,-25
415492,-8
415500,-6
415508,-16
415516,-22
415524,-44
415532,-90
415540,-153
415548,-206
415556,-234
415564,-242
415572,-244
415580,-231
415588,-202
415596,-158
415604,-114
415612,-86
415620,-84
415628,-93
415636,-81
415644,-52
415652,-31
415660,-43
415668,-68
415676,-90
415684,-90
415692,-72
415700,-46
415708,-35
415716,-31
415724,-26
415732,-11
415740,-1
415748,-5
415756,-14
415764,-7
415772,-3
415780,7
415788,18
415796,26
415804,28
415812,22
415820,18
415828,20
415836,27
415844,27
415852,26
415860,35
415868,46
415876,43
415884,37
415892,30
415900,40
415908,46
415916,45
415924,38
415932,36
415940,42
415948,44
415956,47
415964,46
415972,44
415980,44
415988,44
415996,47
416004,44
416012,43
416020,47
416028,46
416036,41
416044,34
416052,37
416060,49
416068,58
416076,60
416084,51
416092,30
416100,14
416108,12
416116,17
416124,37
416132,66
416140,54
416148,-65
416156,-119
416164,232
416172,914
416180,1268
416188,808
416196,-125
416204,-740
416212,-727
416220,-426
416228,-244
416236,-202
416244,-166
416252,-124
416260,-73
416268,-8
416276,29
416284,20
416292,-6
416300,-5
416308,16
416316,39
416324,54
416332,58
416340,49
416348,39
416356,39
416364,47
416372,50
416380,61
416388,73
416396,82
416404,75
416412,74
416420,83
416428,97
416436,103
416444,100
416452,86
416460,55
416468,1
416476,-66
416484,-129
416492,-164
416500,-177
416508,-172
416516,-153
416524,-126
416532,-98
416540,-71
416548,-43
416556,-27
416564,-34
416572,-43
416580,-32
416588,-15
416596,-22
416604,-59
416612,-84
416620,-75
416628,-43
416636,-23
416644,-14
416652,-18
416660,-19
416668,-16
416676,-11
416684,-11
416692,-18
416700,-28
416708,-28
416716,-19
416724,-4
416732,3
416740,1
416748,-3
416756,-4
416764,0
416772,-3
416780,-9
416788,-14
416796,-13
416804,-18
416812,-31
416820,-41
416828,-50
416836,-45
416844,-38
416852,-37
416860,-40
416868,-44
416876,-42
416884,-39
416892,-39
416900,-39
416908,-41
416916,-45
416924,-48
416932,-53
416940,-56
416948,-60
416956,-61
416964,-63
416972,-66
416980,-69
416988,-69
416996,-66
417004,-65
417012,-74
417020,-84
417028,-92
417036,-95
417044,-95
417052,-93
417060,-85
417068,-76
417076,-81
417084,-91
417092,-99
417100,-102
417108,-107
417116,-98
417124,-74
417132,-113
417140,-231
417148,-204
417156,249
417164,881
417172,1036
417180,441
417188,-415
417196,-843
417204,-736
417212,-473
417220,-349
417228,-309
417236,-258
417244,-204
417252,-160
417260,-123
417268,-113
417276,-125
417284,-135
417292,-127
417300,-105
417308,-81
417316,-72
417324,-72
417332,-69
417340,-57
417348,-42
417356,-26
417364,-6
417372,8
417380,8
417388,-5
417396,-12
417404,-1
417412,14
417420,21
417428,20
417436,10
417444,-5
417452,-36
417460,-86
417468,-149
417476,-203
417484,-238
417492,-254
417500,-252
417508,-237
417516,-213
417524,-186
417532,-157
417540,-130
417548,-128
417556,-145
417564,-154
417572,-142
417580,-132
417588,-144
417596,-165
417604,-170
417612,-161
417620,-147
417628,-136
417636,-129
417644,-131
417652,-138
417660,-142
417668,-149
417676,-156
417684,-162
417692,-164
417700,-170
417708,-177
417716,-179
417724,-163
417732,-150
417740,-142
417748,-143
417756,-140
417764,-139
417772,-144
417780,-150
417788,-158
417796,-163
417804,-162
417812,-169
417820,-173
417828,-169
417836,-153
417844,-140
417852,-140
417860,-152
417868,-161
417876,-168
417884,-161
417892,-160
417900,-165
417908,-165
417916,-164
417924,-160
417932,-160
417940,-160
417948,-156
417956,-154
417964,-152
417972,-153
417980,-156
417988,-154
417996,-155
418004,-157
418012,-157
418020,-149
418028,-129
418036,-107
418044,-94
418052,-111
418060,-137
418068,-149
418076,-146
418084,-138
418092,-114
418100,-93
418108,-130
418116,-252
418124,-220
418132,243
418140,875
418148,994
418156,349
418164,-519
418172,-925
418180,-787
418188,-520
418196,-414
418204,-411
418212,-402
418220,-377
418228,-317
418236,-231
418244,-185
418252,-185
418260,-198
418268,-200
418276,-189
418284,-165
418292,-154
418300,-147
418308,-142
418316,-139
418324,-145
418332,-152
418340,-150
418348,-136
418356,-123
418364,-117
418372,-115
418380,-105
418388,-92
418396,-78
418404,-66
418412,-66
418420,-84
418428,-123
418436,-183
418444,-241
418452,-292
418460,-325
418468,-346
418476,-342
418484,-319
418492,-287
418500,-255
418508,-229
418516,-215
418524,-210
418532,-220
418540,-214
418548,-184
418556,-158
418564,-168
418572,-207
418580,-237
418588,-236
418596,-202
418604,-168
418612,-155
418620,-161
418628,-165
418636,-154
418644,-134
418652,-122
418660,-113
418668,-116
418676,-116
418684,-108
418692,-88
418700,-66
418708,-52
418716,-53
418724,-49
418732,-38
418740,-23
418748,-13
418756,-6
418764,-2
418772,11
418780,26
418788,31
418796,36
418804,51
418812,68
418820,88
418828,102
418836,107
418844,103
418852,94
418860,94
418868,103
418876,119
418884,131
418892,128
418900,126
418908,131
418916,140
418924,149
418932,153
418940,156
418948,164
418956,173
418964,165
418972,143
418980,123
418988,120
418996,120
419004,138
419012,172
419020,175
419028,66
419036,-10
419044,296
419052,981
419060,1395
419068,997
419076,62
419084,-611
419092,-647
419100,-363
419108,-179
419116,-131
419124,-91
419132,-45
419140,-9
419148,58
419156,103
419164,102
419172,73
419180,58
419188,61
419196,77
419204,93
419212,104
419220,105
419228,99
419236,97
419244,100
419252,111
419260,127
419268,149
419276,158
419284,152
419292,154
419300,168
419308,180
419316,176
419324,168
419332,162
419340,139
419348,84
419356,1
419364,-67
419372,-101
419380,-109
419388,-108
419396,-96
419404,-69
419412,-34
419420,-7
419428,18
419436,32
419444,29
419452,17
419460,23
419468,50
419476,59
419484,30
419492,-11
419500,-21
419508,3
419516,41
419524,72
419532,75
419540,60
419548,43
419556,37
419564,39
419572,37
419580,31
419588,25
419596,31
419604,52
419612,68
419620,72
419628,55
419636,39
419644,36
419652,45
419660,43
419668,35
419676,26
419684,26
419692,28
419700,26
419708,15
419716,7
419724,10
419732,14
419740,12
419748,2
419756,-6
419764,-6
419772,-4
419780,-2
419788,0
419796,3
419804,0
419812,-13
419820,-26
419828,-33
419836,-36
419844,-36
419852,-36
419860,-39
419868,-38
419876,-38
419884,-37
419892,-39
419900,-36
419908,-31
419916,-26
419924,-34
419932,-50
419940,-72
419948,-82
419956,-85
419964,-82
419972,-65
419980,-39
419988,-72
419996,-196
420004,-206
420012,208
420020,869
420028,1104
420036,559
420044,-336
420052,-846
420060,-777
420068,-499
420076,-343
420084,-303
420092,-261
420100,-214
420108,-166
420116,-115
420124,-101
420132,-120
420140,-137
420148,-133
420156,-117
420164,-103
420172,-104
420180,-104
420188,-97
420196,-76
420204,-61
420212,-46
420220,-23
420228,5
420236,17
420244,8
420252,-15
420260,-6
420268,17
420276,39
420284,45
420292,42
420300,33
420308,1
420316,-55
420324,-129
420332,-181
420340,-210
420348,-219
420356,-218
420364,-204
420372,-185
420380,-157
420388,-132
420396,-106
420404,-98
420412,-106
420420,-113
420428,-103
420436,-97
420444,-105
420452,-119
420460,-125
420468,-116
420476,-97
420484,-75
420492,-60
420500,-53
420508,-54
420516,-67
420524,-81
420532,-89
420540,-92
420548,-87
420556,-88
420564,-90
420572,-78
420580,-58
420588,-51
420596,-63
420604,-78
420612,-82
420620,-75
420628,-69
420636,-70
420644,-77
420652,-87
420660,-92
420668,-90
420676,-88
420684,-84
420692,-80
420700,-79
420708,-80
420716,-77
420724,-74
420732,-74
420740,-81
420748,-88
420756,-92
420764,-90
420772,-88
420780,-84
420788,-84
420796,-82
420804,-79
420812,-77
420820,-80
420828,-85
420836,-86
420844,-81
420852,-82
420860,-88
420868,-90
420876,-91
420884,-91
420892,-93
420900,-92
420908,-92
420916,-88
420924,-78
420932,-72
420940,-72
420948,-87
420956,-109
420964,-118
420972,-120
420980,-121
420988,-112
420996,-91
421004,-110
421012,-226
421020,-279
421028,51
421036,680
421044,1000
421052,564
421060,-299
421068,-866
421076,-863
421084,-605
421092,-447
421100,-406
421108,-357
421116,-298
421124,-246
421132,-196
421140,-172
421148,-171
421156,-183
421164,-187
421172,-185
421180,-173
421188,-158
421196,-149
421204,-145
421212,-143
421220,-138
421228,-128
421236,-112
421244,-96
421252,-87
421260,-93
421268,-107
421276,-109
421284,-90
421292,-59
421300,-39
421308,-45
421316,-72
421324,-105
421332,-153
421340,-205
421348,-247
421356,-276
421364,-291
421372,-292
421380,-273
421388,-245
421396,-210
421404,-187
421412,-168
421420,-165
421428,-168
421436,-159
421444,-130
421452,-114
421460,-130
421468,-164
421476,-177
421484,-161
421492,-133
421500,-113
421508,-104
421516,-99
421524,-100
421532,-119
421540,-141
421548,-154
421556,-148
421564,-125
421572,-116
421580,-123
421588,-129
421596,-121
421604,-105
421612,-94
421620,-97
421628,-99
421636,-93
421644,-84
421652,-79
421660,-81
421668,-87
421676,-97
421684,-100
421692,-105
421700,-104
421708,-98
421716,-91
421724,-86
421732,-88
421740,-93
421748,-100
421756,-110
421764,-114
421772,-111
421780,-118
421788,-143
421796,-170
421804,-174
421812,-161
421820,-149
421828,-149
421836,-151
421844,-151
421852,-149
421860,-154
421868,-148
421876,-133
421884,-109
421892,-92
421900,-87
421908,-98
421916,-117
421924,-127
421932,-128
421940,-129
421948,-109
421956,-80
421964,-106
421972,-227
421980,-218
421988,253
421996,970
422004,1196
422012,568
422020,-395
422028,-894
422036,-762
422044,-447
422052,-294
422060,-252
422068,-196
422076,-145
422084,-83
422092,-4
422100,50
422108,60
422116,48
422124,44
422132,68
422140,99
422148,111
422156,114
422164,121
422172,130
422180,137
422188,141
422196,141
422204,153
422212,169
422220,180
422228,191
422236,211
422244,229
422252,240
422260,237
422268,231
422276,207
422284,160
422292,93
422300,21
422308,-40
422316,-80
422324,-102
422332,-104
422340,-87
422348,-56
422356,-34
422364,-12
422372,1
422380,3
422388,3
422396,17
422404,37
422412,43
422420,25
422428,-6
422436,-25
422444,-18
422452,7
422460,32
422468,44
422476,37
422484,30
422492,35
422500,44
422508,40
422516,30
422524,22
422532,27
422540,35
422548,43
422556,41
422564,32
422572,27
422580,25
422588,25
422596,18
422604,15
422612,11
422620,12
422628,18
422636,21
422644,18
422652,16
422660,20
422668,24
422676,21
422684,13
422692,9
422700,14
422708,14
422716,9
422724,2
422732,-1
422740,-4
422748,-15
422756,-26
422764,-32
422772,-18
422780,3
422788,2
422796,-8
422804,-14
422812,-15
422820,-16
422828,-16
422836,-12
422844,1
422852,16
422860,19
422868,10
422876,-2
422884,-10
422892,-11
422900,12
422908,52
422916,42
422924,-71
422932,-136
422940,197
422948,883
422956,1271
422964,849
422972,-81
422980,-739
422988,-769
422996,-489
423004,-298
423012,-252
423020,-212
423028,-158
423036,-97
423044,-33
423052,-9
423060,-37
423068,-61
423076,-56
423084,-33
423092,-17
423100,-14
423108,-12
423116,-12
423124,-10
423132,-3
423140,7
423148,18
423156,37
423164,52
423172,57
423180,47
423188,44
423196,55
423204,72
423212,74
423220,69
423228,62
423236,40
423244,-8
423252,-82
423260,-145
423268,-183
423276,-196
423284,-193
423292,-178
423300,-159
423308,-137
423316,-109
423324,-86
423332,-80
423340,-94
423348,-100
423356,-93
423364,-71
423372,-75
423380,-95
423388,-107
423396,-102
423404,-88
423412,-77
423420,-64
423428,-50
423436,-41
423444,-43
423452,-56
423460,-69
423468,-78
423476,-79
423484,-79
423492,-77
423500,-73
423508,-58
423516,-51
423524,-56
423532,-69
423540,-77
423548,-76
423556,-79
423564,-83
423572,-88
423580,-92
423588,-90
423596,-89
423604,-87
423612,-81
423620,-78
423628,-75
423636,-80
423644,-89
423652,-96
423660,-83
423668,-60
423676,-48
423684,-52
423692,-68
423700,-84
423708,-93
423716,-102
423724,-105
423732,-96
423740,-89
423748,-88
423756,-93
423764,-94
423772,-90
423780,-81
423788,-83
423796,-88
423804,-94
423812,-96
423820,-98
423828,-99
423836,-91
423844,-74
423852,-71
423860,-85
423868,-100
423876,-106
423884,-105
423892,-103
423900,-83
423908,-64
423916,-117
423924,-242
423932,-178
423940,321
423948,932
423956,986
423964,310
423972,-533
423980,-890
423988,-734
423996,-475
424004,-371
424012,-345
424020,-304
424028,-254
424036,-204
424044,-161
424052,-155
424060,-169
424068,-178
424076,-173
424084,-161
424092,-151
424100,-145
424108,-143
424116,-136
424124,-126
424132,-110
424140,-95
424148,-78
424156,-69
424164,-67
424172,-83
424180,-103
424188,-107
424196,-94
424204,-86
424212,-82
424220,-83
424228,-84
424236,-98
424244,-138
424252,-195
424260,-256
424268,-296
424276,-311
424284,-307
424292,-285
424300,-261
424308,-239
424316,-222
424324,-208
424332,-203
424340,-207
424348,-205
424356,-185
424364,-176
424372,-190
424380,-208
424388,-207
424396,-192
424404,-173
424412,-158
424420,-154
424428,-153
424436,-159
424444,-160
424452,-152
424460,-144
424468,-137
424476,-138
424484,-143
424492,-147
424500,-143
424508,-138
424516,-140
424524,-141
424532,-135
424540,-129
424548,-124
424556,-123
424564,-124
424572,-127
424580,-126
424588,-123
424596,-125
424604,-129
424612,-125
424620,-113
424628,-104
424636,-100
424644,-105
424652,-110
424660,-117
424668,-121
424676,-126
424684,-138
424692,-149
424700,-148
424708,-140
424716,-138
424724,-145
424732,-152
424740,-149
424748,-144
424756,-133
424764,-133
424772,-136
424780,-135
424788,-113
424796,-91
424804,-82
424812,-95
424820,-118
424828,-135
424836,-143
424844,-144
424852,-148
424860,-130
424868,-95
424876,-113
424884,-229
424892,-263
424900,127
424908,810
424916,1106
424924,585
424932,-348
424940,-909
424948,-849
424956,-546
424964,-375
424972,-324
424980,-271
424988,-223
424996,-181
425004,-117
425012,-66
425020,-52
425028,-60
425036,-65
425044,-54
425052,-30
425060,-11
425068,-4
425076,-9
425084,-4
425092,3
425100,16
425108,33
425116,56
425124,74
425132,80
425140,78
425148,78
425156,89
425164,102
425172,120
425180,138
425188,137
425196,108
425204,48
425212,-23
425220,-79
425228,-115
425236,-125
425244,-113
425252,-95
425260,-68
425268,-36
425276,-8
425284,17
425292,18
425300,16
425308,39
425316,69
425324,78
425332,55
425340,21
425348,9
425356,18
425364,37
425372,58
425380,69
425388,68
425396,62
425404,57
425412,57
425420,57
425428,60
425436,62
425444,66
425452,66
425460,68
425468,66
425476,59
425484,54
425492,52
425500,53
425508,56
425516,55
425524,59
425532,55
425540,49
425548,41
425556,39
425564,37
425572,38
425580,43
425588,42
425596,43
425604,49
425612,56
425620,58
425628,56
425636,51
425644,53
425652,53
425660,47
425668,41
425676,36
425684,36
425692,34
425700,38
425708,53
425716,71
425724,82
425732,74
425740,64
425748,59
425756,54
425764,47
425772,46
425780,64
425788,86
425796,36
425804,-84
425812,-2
425820,539
425828,1190
425836,1239
425844,506
425852,-387
425860,-751
425868,-574
425876,-298
425884,-186
425892,-164
425900,-131
425908,-99
425916,-52
425924,1
425932,20
425940,2
425948,-22
425956,-33
425964,-25
425972,-10
425980,5
425988,8
425996,-2
426004,-1
426012,10
426020,29
426028,49
426036,61
426044,61
426052,57
426060,60
426068,76
426076,91
426084,98
426092,98
426100,100
426108,92
426116,51
426124,-18
426132,-90
426140,-145
426148,-179
426156,-196
426164,-193
426172,-165
426180,-129
426188,-99
426196,-78
426204,-57
426212,-55
426220,-65
426228,-74
426236,-60
426244,-42
426252,-48
426260,-70
426268,-84
426276,-76
426284,-59
426292,-51
426300,-42
426308,-40
426316,-43
426324,-47
426332,-53
426340,-61
426348,-69
426356,-72
426364,-71
426372,-73
426380,-66
426388,-55
426396,-52
426404,-67
426412,-79
426420,-73
426428,-69
426436,-71
426444,-79
426452,-86
426460,-88
426468,-90
426476,-93
426484,-92
426492,-94
426500,-94
426508,-96
426516,-96
426524,-93
426532,-80
426540,-73
426548,-67
426556,-69
426564,-71
426572,-75
426580,-80
426588,-78
426596,-75
426604,-70
426612,-67
426620,-69
426628,-74
426636,-75
426644,-81
426652,-84
426660,-88
426668,-85
426676,-86
426684,-86
426692,-81
426700,-67
426708,-54
426716,-54
426724,-73
426732,-94
426740,-103
426748,-104
426756,-103
426764,-80
426772,-63
426780,-113
426788,-229
426796,-169
426804,319
426812,936
426820,1026
426828,373
426836,-473
426844,-857
426852,-721
426860,-468
426868,-356
426876,-319
426884,-266
426892,-210
426900,-162
426908,-124
426916,-121
426924,-134
426932,-139
426940,-125
426948,-102
426956,-88
426964,-82
426972,-83
426980,-85
426988,-80
426996,-68
427004,-50
427012,-32
427020,-23
427028,-26
427036,-40
427044,-47
427052,-35
427060,-12
427068,4
427076,13
427084,11
427092,-6
427100,-45
427108,-101
427116,-162
427124,-210
427132,-253
427140,-276
427148,-279
427156,-262
427164,-239
427172,-208
427180,-178
427188,-155
427196,-154
427204,-163
427212,-160
427220,-142
427228,-135
427236,-148
427244,-167
427252,-155
427260,-130
427268,-114
427276,-110
427284,-108
427292,-105
427300,-117
427308,-128
427316,-135
427324,-129
427332,-124
427340,-123
427348,-127
427356,-119
427364,-103
427372,-86
427380,-83
427388,-94
427396,-109
427404,-119
427412,-117
427420,-110
427428,-111
427436,-115
427444,-120
427452,-129
427460,-143
427468,-152
427476,-142
427484,-125
427492,-120
427500,-128
427508,-129
427516,-125
427524,-126
427532,-135
427540,-141
427548,-140
427556,-141
427564,-140
427572,-143
427580,-140
427588,-139
427596,-137
427604,-133
427612,-128
427620,-131
427628,-137
427636,-143
427644,-143
427652,-138
427660,-125
427668,-114
427676,-108
427684,-112
427692,-134
427700,-152
427708,-151
427716,-145
427724,-136
427732,-113
427740,-98
427748,-159
427756,-276
427764,-152
427772,417
427780,1014
427788,961
427796,185
427804,-644
427812,-913
427820,-692
427828,-439
427836,-357
427844,-343
427852,-310
427860,-278
427868,-223
427876,-152
427884,-120
427892,-128
427900,-140
427908,-140
427916,-132
427924,-115
427932,-102
427940,-97
427948,-108
427956,-120
427964,-128
427972,-119
427980,-102
427988,-86
427996,-73
428004,-65
428012,-56
428020,-50
428028,-42
428036,-41
428044,-34
428052,-28
428060,-28
428068,-53
428076,-106
428084,-165
428092,-208
428100,-228
428108,-230
428116,-224
428124,-208
428132,-187
428140,-159
428148,-127
428156,-103
428164,-95
428172,-85
428180,-53
428188,-22
428196,-23
428204,-56
428212,-88
428220,-89
428228,-69
428236,-40
428244,-22
428252,-14
428260,-15
428268,-6
428276,3
428284,7
428292,6
428300,4
428308,8
428316,13
428324,22
428332,28
428340,29
428348,31
428356,40
428364,50
428372,52
428380,48
428388,49
428396,51
428404,49
428412,41
428420,37
428428,38
428436,51
428444,60
428452,57
428460,51
428468,47
428476,54
428484,56
428492,48
428500,41
428508,39
428516,40
428524,37
428532,41
428540,47
428548,49
428556,40
428564,31
428572,33
428580,55
428588,79
428596,81
428604,58
428612,28
428620,14
428628,8
428636,7
428644,31
428652,61
428660,19
428668,-113
428676,-59
428684,469
428692,1148
428700,1241
428708,516
428716,-414
428724,-815
428732,-648
428740,-355
428748,-232
428756,-200
428764,-160
428772,-119
428780,-69
428788,-7
428796,17
428804,8
428812,-7
428820,-15
428828,-11
428836,-3
428844,15
428852,29
428860,39
428868,35
428876,27
428884,18
428892,24
428900,39
428908,45
428916,45
428924,49
428932,70
428940,95
428948,112
428956,116
428964,112
428972,100
428980,62
428988,-7
428996,-82
429004,-140
429012,-168
429020,-182
429028,-181
429036,-165
429044,-136
429052,-101
429060,-71
429068,-48
429076,-41
429084,-49
429092,-52
429100,-29
429108,-7
429116,-17
429124,-47
429132,-56
429140,-39
429148,-9
429156,11
429164,21
429172,17
429180,8
429188,-2
429196,0
429204,6
429212,1
429220,-6
429228,-10
429236,-7
429244,3
429252,10
429260,13
429268,3
429276,-9
429284,-15
429292,-12
429300,-2
429308,4
429316,3
429324,2
429332,-6
429340,-6
429348,-2
429356,0
429364,1
429372,-2
429380,-1
429388,-2
429396,-1
429404,0
429412,-6
429420,-10
429428,-16
429436,-16
429444,-19
429452,-18
429460,-15
429468,-16
429476,-18
429484,-24
429492,-31
429500,-36
429508,-43
429516,-52
429524,-55
429532,-55
429540,-50
429548,-45
429556,-38
429564,-40
429572,-52
429580,-73
429588,-88
429596,-98
429604,-82
429612,-49
429620,-52
429628,-153
429636,-235
429644,34
429652,670
429660,1105
429668,792
429676,-73
429684,-756
429692,-843
429700,-577
429708,-370
429716,-312
429724,-280
429732,-226
429740,-172
429748,-120
429756,-97
429764,-111
429772,-135
429780,-141
429788,-125
429796,-101
429804,-89
429812,-84
429820,-79
429828,-65
429836,-51
429844,-45
429852,-34
429860,-11
429868,5
429876,4
429884,-2
429892,6
429900,27
429908,46
429916,57
429924,59
429932,50
429940,29
429948,-16
429956,-73
429964,-138
429972,-184
429980,-205
429988,-214
429996,-204
430004,-181
430012,-154
430020,-131
430028,-111
430036,-102
430044,-101
430052,-105
430060,-102
430068,-96
430076,-100
430084,-107
430092,-107
430100,-96
430108,-82
430116,-71
430124,-64
430132,-66
430140,-81
430148,-91
430156,-101
430164,-113
430172,-122
430180,-132
430188,-139
430196,-144
430204,-140
430212,-126
430220,-113
430228,-113
430236,-120
430244,-127
430252,-125
430260,-125
430268,-125
430276,-130
430284,-136
430292,-144
430300,-148
430308,-149
430316,-146
430324,-140
430332,-137
430340,-138
430348,-134
430356,-125
430364,-122
430372,-129
430380,-143
430388,-147
430396,-138
430404,-130
430412,-136
430420,-149
430428,-157
430436,-155
430444,-156
430452,-163
430460,-164
430468,-156
430476,-152
430484,-157
430492,-165
430500,-162
430508,-152
430516,-144
430524,-133
430532,-132
430540,-145
430548,-162
430556,-170
430564,-170
430572,-158
430580,-130
430588,-116
430596,-189
430604,-305
430612,-175
430620,392
430628,966
430636,886
430644,112
430652,-691
430660,-935
430668,-709
430676,-452
430684,-361
430692,-330
430700,-292
430708,-257
430716,-200
430724,-144
430732,-129
430740,-146
430748,-167
430756,-160
430764,-139
430772,-112
430780,-93
430788,-87
430796,-86
430804,-86
430812,-88
430820,-89
430828,-82
430836,-68
430844,-52
430852,-42
430860,-35
430868,-30
430876,-21
430884,-14
430892,-7
430900,-9
430908,-27
430916,-68
430924,-128
430932,-189
430940,-228
430948,-245
430956,-250
430964,-245
430972,-229
430980,-207
430988,-182
430996,-162
431004,-143
431012,-130
431020,-120
431028,-108
431036,-91
431044,-90
431052,-115
431060,-144
431068,-151
431076,-136
431084,-115
431092,-104
431100,-100
431108,-97
431116,-97
431124,-101
431132,-101
431140,-99
431148,-90
431156,-80
431164,-77
431172,-83
431180,-85
431188,-79
431196,-78
431204,-79
431212,-82
431220,-78
431228,-72
431236,-63
431244,-56
431252,-51
431260,-50
431268,-55
431276,-56
431284,-51
431292,-37
431300,-25
431308,-17
431316,-16
431324,-11
431332,-1
431340,10
431348,17
431356,25
431364,31
431372,32
431380,34
431388,40
431396,47
431404,52
431412,50
431420,46
431428,49
431436,58
431444,71
431452,83
431460,84
431468,75
431476,64
431484,60
431492,58
431500,72
431508,112
431516,106
431524,-7
431532,-54
431540,318
431548,1033
431556,1390
431564,893
431572,-90
431580,-727
431588,-710
431596,-405
431604,-221
431612,-182
431620,-144
431628,-98
431636,-56
431644,8
431652,53
431660,60
431668,47
431676,44
431684,53
431692,60
431700,60
431708,61
431716,62
431724,62
431732,64
431740,74
431748,90
431756,98
431764,105
431772,105
431780,109
431788,125
431796,140
431804,142
431812,134
431820,130
431828,121
431836,93
431844,35
431852,-38
431860,-98
431868,-136
431876,-153
431884,-153
431892,-143
431900,-118
431908,-91
431916,-64
431924,-37
431932,-25
431940,-32
431948,-47
431956,-39
431964,-17
431972,-16
431980,-47
431988,-68
431996,-62
432004,-31
432012,-8
432020,-2
432028,-7
432036,-10
432044,-17
432052,-22
432060,-25
432068,-24
432076,-20
432084,-8
432092,3
432100,8
432108,12
432116,9
432124,-2
432132,-17
432140,-24
432148,-25
432156,-23
432164,-21
432172,-23
432180,-20
432188,-14
432196,-10
432204,-8
432212,-5
432220,-9
432228,-9
432236,-10
432244,-12
432252,-16
432260,-23
432268,-31
432276,-34
432284,-35
432292,-32
432300,-32
432308,-37
432316,-40
432324,-36
432332,-37
432340,-44
432348,-56
432356,-64
432364,-59
432372,-48
432380,-45
432388,-44
432396,-38
432404,-29
432412,-21
432420,-22
432428,-30
432436,-45
432444,-68
432452,-76
432460,-72
432468,-60
432476,-38
432484,-20
432492,-76
432500,-204
432508,-142
432516,361
432524,993
432532,1073
432540,387
432548,-486
432556,-873
432564,-723
432572,-453
432580,-336
432588,-302
432596,-250
432604,-197
432612,-140
432620,-94
432628,-85
432636,-102
432644,-123
432652,-125
432660,-109
432668,-95
432676,-89
432684,-86
432692,-86
432700,-81
432708,-63
432716,-38
432724,-15
432732,-5
432740,-8
432748,-14
432756,-13
432764,1
432772,15
432780,30
432788,44
432796,46
432804,33
432812,-4
432820,-67
432828,-131
432836,-181
432844,-209
432852,-217
432860,-212
432868,-193
432876,-171
432884,-141
432892,-113
432900,-88
432908,-84
432916,-94
432924,-109
432932,-110
432940,-110
432948,-103
432956,-95
432964,-82
432972,-73
432980,-64
432988,-56
432996,-49
433004,-41
433012,-37
433020,-44
433028,-59
433036,-77
433044,-85
433052,-88
433060,-87
433068,-81
433076,-65
433084,-45
433092,-40
433100,-53
433108,-65
433116,-69
433124,-67
433132,-65
433140,-66
433148,-70
433156,-80
433164,-85
433172,-86
433180,-81
433188,-78
433196,-81
433204,-83
433212,-83
433220,-78
433228,-74
433236,-73
433244,-74
433252,-76
433260,-79
433268,-79
433276,-78
433284,-79
433292,-78
433300,-86
433308,-93
433316,-96
433324,-97
433332,-95
433340,-95
433348,-97
433356,-96
433364,-90
433372,-83
433380,-82
433388,-85
433396,-93
433404,-93
433412,-94
433420,-92
433428,-96
433436,-99
433444,-96
433452,-93
433460,-96
433468,-99
433476,-96
433484,-84
433492,-72
433500,-70
433508,-80
433516,-101
433524,-114
433532,-118
433540,-118
433548,-100
433556,-72
433564,-92
433572,-207
433580,-261
433588,77
433596,735
433604,1083
433612,655
433620,-231
433628,-835
433636,-843
433644,-571
433652,-394
433660,-355
433668,-321
433676,-268
433684,-214
433692,-155
433700,-128
433708,-135
433716,-138
433724,-131
433732,-117
433740,-111
433748,-112
433756,-111
433764,-102
433772,-95
433780,-99
433788,-111
433796,-113
433804,-101
433812,-81
433820,-78
433828,-84
433836,-80
433844,-63
433852,-49
433860,-42
433868,-43
433876,-45
433884,-67
433892,-107
433900,-166
433908,-226
433916,-276
433924,-295
433932,-291
433940,-277
433948,-252
433956,-223
433964,-189
433972,-152
433980,-139
433988,-143
433996,-143
434004,-124
434012,-105
434020,-114
434028,-143
434036,-163
434044,-151
434052,-125
434060,-104
434068,-96
434076,-99
434084,-107
434092,-109
434100,-111
434108,-109
434116,-110
434124,-111
434132,-116
434140,-116
434148,-113
434156,-96
434164,-87
434172,-85
434180,-96
434188,-99
434196,-99
434204,-96
434212,-95
434220,-90
434228,-86
434236,-77
434244,-73
434252,-68
434260,-72
434268,-75
434276,-74
434284,-71
434292,-76
434300,-88
434308,-94
434316,-100
434324,-101
434332,-105
434340,-107
434348,-106
434356,-100
434364,-87
434372,-75
434380,-67
434388,-65
434396,-66
434404,-63
434412,-55
434420,-54
434428,-57
434436,-59
434444,-50
434452,-47
434460,-42
434468,-41
434476,-31
434484,-15
434492,1
434500,4
434508,-2
434516,-11
434524,-11
434532,-4
434540,1
434548,21
434556,54
434564,39
434572,-78
434580,-109
434588,288
434596,989
434604,1300
434612,770
434620,-179
434628,-759
434636,-707
434644,-405
434652,-236
434660,-195
434668,-153
434676,-114
434684,-76
434692,-17
434700,30
434708,34
434716,19
434724,6
434732,10
434740,24
434748,36
434756,42
434764,43
434772,42
434780,46
434788,49
434796,59
434804,75
434812,94
434820,103
434828,100
434836,100
434844,113
434852,123
434860,125
434868,130
434876,134
434884,113
434892,56
434900,-22
434908,-93
434916,-133
434924,-146
434932,-148
434940,-135
434948,-108
434956,-63
434964,-25
434972,5
434980,13
434988,3
434996,-1
435004,21
435012,48
435020,53
435028,20
435036,-18
435044,-29
435052,-13
435060,8
435068,23
435076,21
435084,13
435092,3
435100,5
435108,9
435116,5
435124,-8
435132,-9
435140,1
435148,16
435156,26
435164,25
435172,12
435180,3
435188,3
435196,5
435204,5
435212,2
435220,3
435228,4
435236,-2
435244,-11
435252,-24
435260,-29
435268,-30
435276,-32
435284,-33
435292,-30
435300,-30
435308,-34
435316,-33
435324,-38
435332,-40
435340,-42
435348,-43
435356,-45
435364,-39
435372,-36
435380,-39
435388,-46
435396,-54
435404,-56
435412,-57
435420,-56
435428,-58
435436,-56
435444,-58
435452,-63
435460,-71
435468,-73
435476,-66
435484,-54
435492,-47
435500,-57
435508,-78
435516,-100
435524,-103
435532,-103
435540,-87
435548,-57
435556,-63
435564,-171
435572,-232
435580,75
435588,726
435596,1108
435604,730
435612,-150
435620,-785
435628,-827
435636,-562
435644,-377
435652,-320
435660,-274
435668,-222
435676,-175
435684,-124
435692,-98
435700,-108
435708,-127
435716,-130
435724,-113
435732,-94
435740,-82
435748,-83
435756,-83
435764,-76
435772,-58
435780,-39
435788,-19
435796,0
435804,9
435812,2
435820,-7
435828,-9
435836,3
435844,23
435852,44
435860,52
435868,47
435876,26
435884,-13
435892,-74
435900,-138
435908,-189
435916,-218
435924,-225
435932,-215
435940,-189
435948,-161
435956,-133
435964,-108
435972,-88
435980,-85
435988,-92
435996,-90
436004,-80
436012,-79
436020,-99
436028,-106
436036,-95
436044,-80
436052,-70
436060,-68
436068,-61
436076,-58
436084,-65
436092,-76
436100,-84
436108,-83
436116,-77
436124,-83
436132,-91
436140,-89
436148,-72
436156,-60
436164,-64
436172,-80
436180,-93
436188,-95
436196,-93
436204,-93
436212,-90
436220,-90
436228,-96
436236,-102
436244,-102
436252,-95
436260,-91
436268,-89
436276,-92
436284,-94
436292,-94
436300,-90
436308,-96
436316,-103
436324,-110
436332,-116
436340,-122
436348,-127
436356,-133
436364,-131
436372,-127
436380,-122
436388,-126
436396,-131
436404,-131
436412,-124
436420,-119
436428,-122
436436,-129
436444,-128
436452,-122
436460,-118
436468,-119
436476,-132
436484,-139
436492,-130
436500,-107
436508,-90
436516,-93
436524,-111
436532,-124
436540,-128
436548,-141
436556,-146
436564,-129
436572,-115
436580,-193
436588,-295
436596,-123
436604,471
436612,1010
436620,865
436628,63
436636,-704
436644,-906
436652,-677
436660,-451
436668,-378
436676,-344
436684,-300
436692,-262
436700,-207
436708,-155
436716,-132
436724,-135
436732,-142
436740,-144
436748,-137
436756,-123
436764,-112
436772,-107
436780,-109
436788,-111
436796,-100
436804,-92
436812,-80
436820,-66
436828,-59
436836,-56
436844,-46
436852,-27
436860,-12
436868,-5
436876,0
436884,8
436892,3
436900,-24
436908,-75
436916,-140
436924,-202
436932,-243
436940,-255
436948,-244
436956,-215
436964,-186
436972,-163
436980,-134
436988,-109
436996,-101
437004,-112
437012,-107
437020,-82
437028,-63
437036,-73
437044,-110
437052,-129
437060,-122
437068,-106
437076,-103
437084,-105
437092,-106
437100,-105
437108,-104
437116,-105
437124,-101
437132,-92
437140,-90
437148,-97
437156,-98
437164,-84
437172,-72
437180,-77
437188,-88
437196,-93
437204,-86
437212,-77
437220,-79
437228,-83
437236,-80
437244,-76
437252,-79
437260,-81
437268,-82
437276,-77
437284,-70
437292,-67
437300,-67
437308,-71
437316,-74
437324,-63
437332,-52
437340,-46
437348,-51
437356,-62
437364,-60
437372,-54
437380,-48
437388,-43
437396,-35
437404,-30
437412,-28
437420,-20
437428,-3
437436,16
437444,32
437452,36
437460,34
437468,24
437476,15
437484,13
437492,11
437500,26
437508,62
437516,66
437524,-31
437532,-110
437540,186
437548,867
437556,1308
437564,937
437572,13
437580,-681
437588,-738
437596,-458
437604,-258
437612,-201
437620,-158
437628,-118
437636,-87
437644,-32
437652,18
437660,24
437668,14
437676,3
437684,12
437692,18
437700,24
437708,33
437716,43
437724,44
437732,42
437740,41
437748,43
437756,54
437764,68
437772,75
437780,71
437788,78
437796,95
437804,111
437812,111
437820,105
437828,109
437836,97
437844,56
437852,-13
437860,-75
437868,-115
437876,-130
437884,-133
437892,-127
437900,-117
437908,-92
437916,-54
437924,-12
437932,10
437940,3
437948,0
437956,28
437964,65
437972,77
437980,42
437988,2
437996,-10
438004,11
438012,37
438020,46
438028,42
438036,32
438044,22
438052,17
438060,10
438068,6
438076,8
438084,15
438092,21
438100,21
438108,27
438116,28
438124,17
438132,1
438140,-8
438148,1
438156,8
438164,6
438172,-4
438180,-14
438188,-13
438196,-13
438204,-12
438212,-14
438220,-18
438228,-23
438236,-27
438244,-27
438252,-24
438260,-24
438268,-26
438276,-27
438284,-27
438292,-28
438300,-28
438308,-25
438316,-24
438324,-31
438332,-38
438340,-38
438348,-37
438356,-41
438364,-45
438372,-48
438380,-49
438388,-45
438396,-35
438404,-32
438412,-36
438420,-52
438428,-68
438436,-75
438444,-80
438452,-74
438460,-46
438468,-49
438476,-148
438484,-229
438492,41
438500,679
438508,1109
438516,787
438524,-87
438532,-761
438540,-841
438548,-579
438556,-381
438564,-324
438572,-280
438580,-225
438588,-175
438596,-120
438604,-86
438612,-90
438620,-114
438628,-123
438636,-114
438644,-92
438652,-77
438660,-78
438668,-85
438676,-84
438684,-73
438692,-51
438700,-22
438708,2
438716,13
438724,10
438732,3
438740,7
438748,20
438756,32
438764,35
438772,38
438780,42
438788,34
438796,-4
438804,-68
438812,-135
438820,-186
438828,-216
438836,-225
438844,-217
438852,-198
438860,-171
438868,-143
438876,-117
438884,-97
438892,-93
438900,-99
438908,-93
438916,-84
438924,-83
438932,-96
438940,-105
438948,-99
438956,-83
438964,-65
438972,-56
438980,-55
438988,-56
438996,-56
439004,-58
439012,-69
439020,-84
439028,-89
439036,-87
439044,-90
439052,-83
439060,-67
439068,-52
439076,-59
439084,-72
439092,-76
439100,-73
439108,-73
439116,-80
439124,-90
439132,-90
439140,-91
439148,-91
439156,-95
439164,-95
439172,-97
439180,-98
439188,-96
439196,-102
439204,-106
439212,-102
439220,-100
439228,-106
439236,-113
439244,-116
439252,-114
439260,-115
439268,-112
439276,-115
439284,-110
439292,-101
439300,-99
439308,-102
439316,-108
439324,-111
439332,-111
439340,-118
439348,-124
439356,-124
439364,-116
439372,-110
439380,-107
439388,-113
439396,-134
439404,-151
439412,-152
439420,-146
439428,-123
439436,-94
439444,-112
439452,-230
439460,-268
439468,89
439476,743
439484,1042
439492,565
439500,-322
439508,-881
439516,-855
439524,-590
439532,-430
439540,-386
439548,-345
439556,-306
439564,-263
439572,-203
439580,-165
439588,-165
439596,-172
439604,-171
439612,-147
439620,-125
439628,-117
439636,-118
439644,-121
439652,-116
439660,-106
439668,-102
439676,-99
439684,-89
439692,-78
439700,-77
439708,-80
439716,-77
439724,-68
439732,-50
439740,-36
439748,-24
439756,-30
439764,-53
439772,-96
439780,-148
439788,-205
439796,-251
439804,-284
439812,-295
439820,-280
439828,-242
439836,-206
439844,-186
439852,-165
439860,-144
439868,-131
439876,-122
439884,-106
439892,-89
439900,-96
439908,-127
439916,-148
439924,-146
439932,-120
439940,-99
439948,-84
439956,-82
439964,-92
439972,-102
439980,-98
439988,-94
439996,-91
440004,-103
440012,-122
440020,-133
440028,-132
440036,-117
440044,-97
440052,-99
440060,-113
440068,-121
440076,-115
440084,-109
440092,-105
440100,-101
440108,-100
440116,-110
440124,-128
440132,-141
440140,-135
440148,-120
440156,-111
440164,-106
440172,-101
440180,-98
440188,-97
440196,-96
440204,-99
440212,-102
440220,-108
440228,-109
440236,-107
440244,-103
440252,-99
440260,-100
440268,-99
440276,-95
440284,-83
440292,-61
440300,-42
440308,-37
440316,-56
440324,-77
440332,-84
440340,-84
440348,-85
440356,-64
440364,-23
440372,-33
440380,-148
440388,-153
440396,295
440404,1027
440412,1298
440420,704
440428,-277
440436,-828
440444,-733
440452,-415
440460,-252
440468,-209
440476,-156
440484,-108
440492,-63
440500,8
440508,53
440516,62
440524,52
440532,52
440540,66
440548,79
440556,84
440564,87
440572,94
440580,97
440588,97
440596,95
440604,99
440612,112
440620,126
440628,135
440636,143
440644,148
440652,154
440660,159
440668,164
440676,165
440684,157
440692,125
440700,64
440708,-14
440716,-77
440724,-118
440732,-133
440740,-130
440748,-111
440756,-78
440764,-53
440772,-25
440780,2
440788,23
440796,23
440804,20
440812,36
440820,60
440828,55
440836,15
440844,-21
440852,-24
440860,-3
440868,19
440876,32
440884,34
440892,29
440900,23
440908,25
440916,29
440924,28
440932,25
440940,26
440948,30
440956,35
440964,35
440972,35
440980,35
440988,36
440996,35
441004,35
441012,31
441020,37
441028,40
441036,45
441044,44
441052,40
441060,40
441068,40
441076,44
441084,49
441092,48
441100,47
441108,45
441116,40
441124,36
441132,31
441140,29
441148,29
441156,27
441164,21
441172,17
441180,15
441188,12
441196,7
441204,0
441212,-4
441220,-4
441228,-2
441236,4
441244,7
441252,-3
441260,-19
441268,-29
441276,-31
441284,-16
441292,6
441300,-24
441308,-145
441316,-166
441324,225
441332,895
441340,1174
441348,651
441356,-260
441364,-819
441372,-783
441380,-506
441388,-346
441396,-298
441404,-250
441412,-200
441420,-148
441428,-96
441436,-77
441444,-90
441452,-109
441460,-116
441468,-108
441476,-96
441484,-87
441492,-84
441500,-84
441508,-84
441516,-69
441524,-42
441532,-11
441540,9
441548,11
441556,5
441564,0
441572,8
441580,26
441588,40
441596,46
441604,45
441612,41
441620,19
441628,-31
441636,-98
441644,-164
441652,-211
441660,-232
441668,-231
441676,-209
441684,-180
441692,-154
441700,-134
441708,-115
441716,-108
441724,-108
441732,-114
441740,-113
441748,-112
441756,-109
441764,-109
441772,-104
441780,-99
441788,-93
441796,-80
441804,-71
441812,-60
441820,-56
441828,-61
441836,-67
441844,-74
441852,-86
441860,-91
441868,-92
441876,-89
441884,-80
441892,-70
441900,-63
441908,-64
441916,-71
441924,-76
441932,-81
441940,-80
441948,-75
441956,-79
441964,-86
441972,-92
441980,-89
441988,-83
441996,-85
442004,-86
442012,-80
442020,-76
442028,-77
442036,-77
442044,-78
442052,-78
442060,-78
442068,-86
442076,-87
442084,-82
442092,-83
442100,-87
442108,-93
442116,-89
442124,-87
442132,-83
442140,-80
442148,-84
442156,-87
442164,-91
442172,-93
442180,-97
442188,-96
442196,-96
442204,-93
442212,-78
442220,-63
442228,-62
442236,-82
442244,-117
442252,-133
442260,-133
442268,-125
442276,-103
442284,-86
442292,-134
442300,-256
442308,-185
442316,312
442324,918
442332,977
442340,300
442348,-538
442356,-892
442364,-742
442372,-491
442380,-384
442388,-341
442396,-287
442404,-244
442412,-195
442420,-148
442428,-133
442436,-138
442444,-150
442452,-149
442460,-141
442468,-127
442476,-117
442484,-106
442492,-98
442500,-95
442508,-95
442516,-83
442524,-65
442532,-51
442540,-52
442548,-65
442556,-70
442564,-59
442572,-34
442580,-12
442588,-1
442596,-3
442604,-17
442612,-44
442620,-86
442628,-149
442636,-215
442644,-255
442652,-263
442660,-255
442668,-237
442676,-218
442684,-199
442692,-177
442700,-160
442708,-151
442716,-147
442724,-141
442732,-130
442740,-127
442748,-145
442756,-166
442764,-169
442772,-156
442780,-139
442788,-124
442796,-110
442804,-113
442812,-121
442820,-129
442828,-131
442836,-127
442844,-124
442852,-121
442860,-117
442868,-118
442876,-114
442884,-105
442892,-93
442900,-92
442908,-96
442916,-99
442924,-95
442932,-89
442940,-85
442948,-84
442956,-85
442964,-87
442972,-87
442980,-87
442988,-85
442996,-86
443004,-86
443012,-88
443020,-92
443028,-94
443036,-94
443044,-96
443052,-98
443060,-108
443068,-113
443076,-116
443084,-120
443092,-123
443100,-119
443108,-112
443116,-103
443124,-100
443132,-100
443140,-102
443148,-103
443156,-97
443164,-84
443172,-64
443180,-51
443188,-51
443196,-63
443204,-78
443212,-88
443220,-90
443228,-81
443236,-47
443244,-15
443252,-56
443260,-183
443268,-109
443276,439
443284,1104
443292,1158
443300,409
443308,-502
443316,-856
443324,-656
443332,-372
443340,-269
443348,-246
443356,-193
443364,-139
443372,-79
443380,-19
443388,7
443396,8
443404,4
443412,8
443420,25
443428,39
443436,53
443444,60
443452,67
443460,72
443468,78
443476,83
443484,95
443492,106
443500,116
443508,112
443516,118
443524,135
443532,150
443540,153
443548,149
443556,146
443564,138
443572,109
443580,54
443588,-15
443596,-73
443604,-119
443612,-143
443620,-141
443628,-124
443636,-92
443644,-60
443652,-30
443660,-9
443668,-3
443676,-8
443684,-2
443692,30
443700,49
443708,31
443716,-11
443724,-33
443732,-24
443740,6
443748,25
443756,32
443764,31
443772,30
443780,24
443788,20
443796,16
443804,14
443812,19
443820,26
443828,36
443836,45
443844,45
443852,31
443860,19
443868,9
443876,11
443884,16
443892,22
443900,25
443908,31
443916,33
443924,36
443932,34
443940,28
443948,26
443956,27
443964,26
443972,30
443980,36
443988,37
443996,34
444004,30
444012,23
444020,26
444028,27
444036,31
444044,33
444052,28
444060,21
444068,15
444076,17
444084,19
444092,16
444100,11
444108,10
444116,11
444124,9
444132,6
444140,9
444148,16
444156,13
444164,-6
444172,-31
444180,-53
444188,-56
444196,-53
444204,-30
444212,-6
444220,-42
444228,-171
444236,-168
444244,265
444252,927
444260,1140
444268,567
444276,-333
444284,-832
444292,-759
444300,-492
444308,-353
444316,-316
444324,-270
444332,-219
444340,-170
444348,-115
444356,-94
444364,-102
444372,-119
444380,-123
444388,-110
444396,-92
444404,-81
444412,-81
444420,-77
444428,-71
444436,-61
444444,-46
444452,-30
444460,-11
444468,-2
444476,-6
444484,-10
444492,0
444500,19
444508,31
444516,36
444524,40
444532,39
444540,18
444548,-25
444556,-87
444564,-151
444572,-198
444580,-223
444588,-228
444596,-217
444604,-191
444612,-164
444620,-140
444628,-118
444636,-105
444644,-106
444652,-106
444660,-100
444668,-93
444676,-95
444684,-98
444692,-98
444700,-90
444708,-76
444716,-62
444724,-53
444732,-47
444740,-51
444748,-59
444756,-70
444764,-77
444772,-78
444780,-71
444788,-70
444796,-75
444804,-76
444812,-66
444820,-60
444828,-66
444836,-73
444844,-74
444852,-73
444860,-75
444868,-81
444876,-80
444884,-80
444892,-82
444900,-83
444908,-84
444916,-83
444924,-81
444932,-80
444940,-78
444948,-73
444956,-65
444964,-61
444972,-68
444980,-82
444988,-89
444996,-89
445004,-82
445012,-80
445020,-83
445028,-90
445036,-92
445044,-92
445052,-86
445060,-85
445068,-89
445076,-98
445084,-103
445092,-100
445100,-100
445108,-102
445116,-111
445124,-121
445132,-117
445140,-110
445148,-92
445156,-75
445164,-75
445172,-100
445180,-130
445188,-146
445196,-149
445204,-141
445212,-104
445220,-89
445228,-155
445236,-267
445244,-150
445252,399
445260,968
445268,912
445276,173
445284,-620
445292,-891
445300,-703
445308,-464
445316,-375
445324,-340
445332,-289
445340,-244
445348,-194
445356,-151
445364,-142
445372,-146
445380,-152
445388,-152
445396,-146
445404,-135
445412,-119
445420,-109
445428,-106
445436,-106
445444,-109
445452,-102
445460,-86
445468,-69
445476,-68
445484,-78
445492,-79
445500,-68
445508,-53
445516,-46
445524,-49
445532,-46
445540,-44
445548,-59
445556,-96
445564,-160
445572,-227
445580,-276
445588,-287
445596,-276
445604,-259
445612,-238
445620,-213
445628,-180
445636,-150
445644,-141
445652,-144
445660,-141
445668,-122
445676,-107
445684,-122
445692,-144
445700,-155
445708,-141
445716,-112
445724,-89
445732,-82
445740,-92
445748,-109
445756,-119
445764,-116
445772,-110
445780,-106
445788,-101
445796,-93
445804,-92
445812,-93
445820,-92
445828,-90
445836,-85
445844,-89
445852,-91
445860,-93
445868,-80
445876,-68
445884,-65
445892,-73
445900,-84
445908,-98
445916,-105
445924,-106
445932,-99
445940,-98
445948,-92
445956,-82
445964,-69
445972,-65
445980,-64
445988,-59
445996,-50
446004,-48
446012,-51
446020,-50
446028,-40
446036,-31
446044,-31
446052,-34
446060,-31
446068,-27
446076,-27
446084,-26
446092,-15
446100,1
446108,20
446116,26
446124,12
446132,-8
446140,-14
446148,-3
446156,12
446164,40
446172,65
446180,17
446188,-106
446196,-32
446204,514
446212,1188
446220,1252
446228,507
446236,-405
446244,-776
446252,-587
446260,-302
446268,-197
446276,-170
446284,-130
446292,-91
446300,-37
446308,28
446316,46
446324,27
446332,7
446340,9
446348,16
446356,30
446364,40
446372,49
446380,46
446388,40
446396,46
446404,60
446412,69
446420,78
446428,88
446436,98
446444,97
446452,101
446460,110
446468,120
446476,129
446484,132
446492,132
446500,111
446508,56
446516,-27
446524,-100
446532,-144
446540,-159
446548,-162
446556,-155
446564,-141
446572,-111
446580,-76
446588,-45
446596,-37
446604,-42
446612,-31
446620,1
446628,22
446636,15
446644,-12
446652,-28
446660,-23
446668,-1
446676,17
446684,19
446692,17
446700,16
446708,17
446716,20
446724,11
446732,3
446740,-2
446748,8
446756,20
446764,28
446772,26
446780,11
446788,-5
446796,-15
446804,-16
446812,-16
446820,-19
446828,-24
446836,-26
446844,-27
446852,-30
446860,-32
446868,-37
446876,-40
446884,-43
446892,-41
446900,-38
446908,-40
446916,-45
446924,-48
446932,-51
446940,-51
446948,-50
446956,-48
446964,-49
446972,-54
446980,-59
446988,-61
446996,-61
447004,-56
447012,-57
447020,-58
447028,-62
447036,-63
447044,-69
447052,-75
447060,-81
447068,-72
447076,-49
447084,-35
447092,-47
447100,-75
447108,-97
447116,-100
447124,-95
447132,-77
447140,-50
447148,-60
447156,-158
447164,-215
447172,101
447180,748
447188,1115
447196,718
447204,-164
447212,-791
447220,-820
447228,-551
447236,-370
447244,-320
447252,-278
447260,-224
447268,-170
447276,-113
447284,-84
447292,-97
447300,-117
447308,-128
447316,-117
447324,-96
447332,-77
447340,-72
447348,-73
447356,-69
447364,-61
447372,-52
447380,-29
447388,-6
447396,8
447404,7
447412,2
447420,6
447428,18
447436,28
447444,33
447452,33
447460,35
447468,25
447476,-3
447484,-60
447492,-126
447500,-179
447508,-212
447516,-223
447524,-215
447532,-192
447540,-164
447548,-137
447556,-118
447564,-107
447572,-101
447580,-96
447588,-81
447596,-65
447604,-67
447612,-88
447620,-97
447628,-95
447636,-79
447644,-66
447652,-53
447660,-45
447668,-44
447676,-56
447684,-66
447692,-75
447700,-79
447708,-83
447716,-84
447724,-86
447732,-84
447740,-74
447748,-67
447756,-72
447764,-88
447772,-96
447780,-91
447788,-87
447796,-86
447804,-97
447812,-101
447820,-108
447828,-110
447836,-112
447844,-112
447852,-114
447860,-123
447868,-131
447876,-130
447884,-127
447892,-123
447900,-122
447908,-127
447916,-128
447924,-126
447932,-122
447940,-122
447948,-127
447956,-130
447964,-133
447972,-133
447980,-135
447988,-139
447996,-138
448004,-136
448012,-128
448020,-116
448028,-112
448036,-118
448044,-128
448052,-133
448060,-124
448068,-113
448076,-99
448084,-102
448092,-119
448100,-143
448108,-149
448116,-139
448124,-118
448132,-88
448140,-69
448148,-139
448156,-256
448164,-114
448172,462
448180,1015
448188,902
448196,107
448204,-680
448212,-900
448220,-678
448228,-449
448236,-370
448244,-335
448252,-294
448260,-259
448268,-199
448276,-140
448284,-118
448292,-129
448300,-144
448308,-139
448316,-123
448324,-110
448332,-103
448340,-94
448348,-90
448356,-87
448364,-83
448372,-75
448380,-63
448388,-50
448396,-44
448404,-49
448412,-43
448420,-33
448428,-18
448436,-5
448444,1
448452,3
448460,0
448468,-26
448476,-80
448484,-140
448492,-187
448500,-221
448508,-248
448516,-252
448524,-230
448532,-197
448540,-168
448548,-144
448556,-128
448564,-119
448572,-115
448580,-102
448588,-84
448596,-75
448604,-94
448612,-106
448620,-107
448628,-97
448636,-84
448644,-73
448652,-68
448660,-62
448668,-57
448676,-50
448684,-48
448692,-46
448700,-48
448708,-54
448716,-59
448724,-55
448732,-42
448740,-29
448748,-24
448756,-22
448764,-16
448772,-8
448780,1
448788,10
448796,22
448804,32
448812,28
448820,17
448828,13
448836,18
448844,32
448852,42
448860,42
448868,40
448876,44
448884,44
448892,42
448900,40
448908,41
448916,44
448924,46
448932,44
448940,38
448948,32
448956,29
448964,33
448972,37
448980,47
448988,53
448996,59
449004,55
449012,36
449020,19
449028,14
449036,13
449044,18
449052,41
449060,52
449068,-32
449076,-138
449084,70
449092,715
449100,1250
449108,1034
449116,152
449124,-631
449132,-796
449140,-537
449148,-301
449156,-225
449164,-185
449172,-138
449180,-92
449188,-29
449196,31
449204,43
449212,22
449220,4
449228,7
449236,16
449244,22
449252,25
449260,26
449268,22
449276,12
449284,2
449292,1
449300,21
449308,42
449316,53
449324,47
449332,45
449340,57
449348,77
449356,86
449364,92
449372,92
449380,81
449388,38
449396,-30
449404,-103
449412,-153
449420,-183
449428,-196
449436,-197
449444,-181
449452,-150
449460,-112
449468,-71
449476,-48
449484,-50
449492,-64
449500,-50
449508,-20
449516,-6
449524,-27
449532,-62
449540,-80
449548,-70
449556,-53
449564,-34
449572,-33
449580,-34
449588,-46
449596,-51
449604,-54
449612,-55
449620,-52
449628,-45
449636,-40
449644,-40
449652,-45
449660,-41
449668,-41
449676,-44
449684,-53
449692,-65
449700,-72
449708,-72
449716,-68
449724,-64
449732,-71
449740,-85
449748,-100
449756,-111
449764,-115
449772,-119
449780,-119
449788,-118
449796,-118
449804,-119
449812,-118
449820,-112
449828,-102
449836,-97
449844,-96
449852,-101
449860,-96
449868,-85
449876,-81
449884,-85
449892,-89
449900,-86
449908,-79
449916,-77
449924,-73
449932,-60
449940,-47
449948,-47
449956,-71
449964,-96
449972,-99
449980,-93
449988,-86
449996,-65
450004,-40
450012,-90
450020,-209
450028,-141
450036,372
450044,998
450052,1058
450060,359
450068,-500
450076,-859
450084,-701
450092,-446
450100,-338
450108,-297
450116,-236
450124,-179
450132,-130
450140,-91
450148,-77
450156,-85
450164,-94
450172,-95
450180,-85
450188,-70
450196,-57
450204,-57
450212,-58
450220,-52
450228,-38
450236,-24
450244,-6
450252,5
450260,7
450268,4
450276,4
450284,20
450292,39
450300,53
450308,58
450316,55
450324,50
450332,28
450340,-20
450348,-87
450356,-149
450364,-189
450372,-201
450380,-202
450388,-189
450396,-168
450404,-138
450412,-108
450420,-84
450428,-72
450436,-71
450444,-71
450452,-53
450460,-37
450468,-39
450476,-58
450484,-76
450492,-80
450500,-67
450508,-37
450516,-15
450524,-12
450532,-24
450540,-32
450548,-37
450556,-38
450564,-39
450572,-38
450580,-40
450588,-41
450596,-41
450604,-37
450612,-38
450620,-47
450628,-53
450636,-52
450644,-48
450652,-46
450660,-41
450668,-44
450676,-47
450684,-49
450692,-55
450700,-61
450708,-66
450716,-62
450724,-62
450732,-59
450740,-56
450748,-54
450756,-57
450764,-59
450772,-59
450780,-53
450788,-47
450796,-38
450804,-36
450812,-47
450820,-62
450828,-79
450836,-83
450844,-89
450852,-84
450860,-52
450868,-44
450876,-127
450884,-210
450892,31
450900,649
450908,1089
450916,803
450924,-41
450932,-721
450940,-817
450948,-571
450956,-378
450964,-316
450972,-267
450980,-209
450988,-162
450996,-114
451004,-87
451012,-86
451020,-99
451028,-105
451036,-98
451044,-82
451052,-64
451060,-60
451068,-61
451076,-58
451084,-46
451092,-30
451100,-13
451108,3
451116,19
451124,23
451132,21
451140,19
451148,26
451156,35
451164,43
451172,49
451180,46
451188,32
451196,-15
451204,-82
451212,-152
451220,-203
451228,-228
451236,-232
451244,-214
451252,-189
451260,-166
451268,-144
451276,-127
451284,-115
451292,-122
451300,-131
451308,-117
451316,-96
451324,-85
451332,-93
451340,-107
451348,-113
451356,-106
451364,-97
451372,-87
451380,-81
451388,-78
451396,-82
451404,-88
451412,-101
451420,-109
451428,-108
451436,-108
451444,-110
451452,-108
451460,-102
451468,-92
451476,-90
451484,-95
451492,-100
451500,-99
451508,-101
451516,-107
451524,-114
451532,-120
451540,-121
451548,-115
451556,-108
451564,-98
451572,-98
451580,-108
451588,-117
451596,-122
451604,-117
451612,-111
451620,-109
451628,-108
451636,-113
451644,-118
451652,-118
451660,-115
451668,-112
451676,-110
451684,-108
451692,-101
451700,-105
451708,-112
451716,-123
451724,-131
451732,-126
451740,-114
451748,-105
451756,-107
451764,-114
451772,-113
451780,-105
451788,-90
451796,-86
451804,-93
451812,-111
451820,-129
451828,-137
451836,-138
451844,-128
451852,-91
451860,-65
451868,-132
451876,-254
451884,-131
451892,438
451900,1014
451908,932
451916,148
451924,-667
451932,-912
451940,-684
451948,-435
451956,-354
451964,-327
451972,-285
451980,-250
451988,-200
451996,-135
452004,-110
452012,-114
452020,-123
452028,-110
452036,-89
452044,-78
452052,-72
452060,-61
452068,-55
452076,-56
452084,-61
452092,-62
452100,-53
452108,-33
452116,-25
452124,-30
452132,-29
452140,-15
452148,4
452156,16
452164,12
452172,12
452180,7
452188,-10
452196,-52
452204,-112
