timestamp,sample
868772,-31
868780,-15
868788,-34
868796,-91
868804,-149
868812,-175
868820,-157
868828,-128
868836,-120
868844,-97
868852,-61
868860,-16
868868,7
868876,4
868884,7
868892,9
868900,8
868908,3
868916,-15
868924,-37
868932,-69
868940,-84
868948,-69
868956,-53
868964,-48
868972,-69
868980,-72
868988,-40
868996,-3
869004,30
869012,31
869020,27
869028,26
869036,47
869044,115
869052,237
869060,384
869068,462
869076,471
869084,494
869092,512
869100,478
869108,394
869116,362
869124,451
869132,466
869140,373
869148,277
869156,78
869164,-291
869172,-394
869180,331
869188,1447
869196,1620
869204,360
869212,-1097
869220,-1349
869228,-711
869236,-331
869244,-451
869252,-506
869260,-137
869268,223
869276,77
869284,-334
869292,-500
869300,-273
869308,27
869316,74
869324,-100
869332,-197
869340,-84
869348,40
869356,56
869364,57
869372,92
869380,119
869388,113
869396,118
869404,152
869412,181
869420,206
869428,233
869436,257
869444,263
869452,213
869460,148
869468,132
869476,193
869484,306
869492,376
869500,354
869508,283
869516,233
869524,232
869532,246
869540,250
869548,241
869556,215
869564,189
869572,164
869580,152
869588,82
869596,-154
869604,-541
869612,-961
869620,-1248
869628,-1338
869636,-1290
869644,-1177
869652,-1043
869660,-932
869668,-863
869676,-819
869684,-743
869692,-635
869700,-512
869708,-414
869716,-377
869724,-387
869732,-396
869740,-350
869748,-254
869756,-188
869764,-244
869772,-369
869780,-162
869788,596
869796,1344
869804,1278
869812,322
869820,-692
869828,-982
869836,-661
869844,-311
869852,-178
869860,-94
869868,-3
869876,30
869884,32
869892,17
869900,-6
869908,-43
869916,-90
869924,-116
869932,-133
869940,-149
869948,-155
869956,-153
869964,-124
869972,-66
869980,18
869988,75
869996,61
870004,10
870012,-40
870020,-81
870028,-107
870036,-105
870044,-70
870052,-59
870060,-72
870068,-99
870076,-126
870084,-142
870092,-137
870100,-98
870108,-55
870116,-63
870124,-87
870132,-100
870140,-95
870148,-97
870156,-95
870164,-57
870172,-26
870180,-22
870188,-54
870196,-117
870204,-171
870212,-190
870220,-160
870228,-73
870236,-1
870244,0
870252,-86
870260,-167
870268,-173
870276,-109
870284,-48
870292,-45
870300,-70
870308,-89
870316,-94
870324,-80
870332,-68
870340,-56
870348,-32
870356,14
870364,13
870372,-136
870380,-256
870388,129
870396,1014
870404,1560
870412,1041
870420,-169
870428,-1024
870436,-1035
870444,-631
870452,-370
870460,-302
870468,-239
870476,-174
870484,-142
870492,-114
870500,-108
870508,-106
870516,-74
870524,-38
870532,-37
870540,-34
870548,-1
870556,33
870564,21
870572,-26
870580,-53
870588,-18
870596,37
870604,73
870612,73
870620,31
870628,-28
870636,-50
870644,-30
870652,-22
870660,-36
870668,-72
870676,-111
870684,-125
870692,-113
870700,-109
870708,-133
870716,-152
870724,-102
870732,-5
870740,62
870748,41
870756,-25
870764,-68
870772,-80
870780,-70
870788,-51
870796,-38
870804,-14
870812,7
870820,11
870828,-20
870836,-62
870844,-69
870852,-70
870860,-72
870868,-66
870876,-28
870884,32
870892,40
870900,-13
870908,-56
870916,-50
870924,-33
870932,-29
870940,-16
870948,-31
870956,-147
870964,-155
870972,352
870980,1227
870988,1591
870996,868
871004,-394
871012,-1161
871020,-1077
871028,-650
871036,-408
871044,-323
871052,-236
871060,-165
871068,-123
871076,-71
871084,-35
871092,-53
871100,-100
871108,-118
871116,-89
871124,-33
871132,-1
871140,9
871148,23
871156,30
871164,39
871172,30
871180,0
871188,-30
871196,-24
871204,5
871212,2
871220,-25
871228,-32
871236,-26
871244,-51
871252,-122
871260,-187
871268,-185
871276,-130
871284,-63
871292,-52
871300,-79
871308,-108
871316,-105
871324,-86
871332,-83
871340,-71
871348,-19
871356,29
871364,5
871372,-74
871380,-107
871388,-43
871396,17
871404,0
871412,-75
871420,-103
871428,-68
871436,-29
871444,-26
871452,-65
871460,-104
871468,-102
871476,-67
871484,-29
871492,-15
871500,-11
871508,-14
871516,-27
871524,-42
871532,-76
871540,-99
871548,-73
871556,-20
871564,-36
871572,-189
871580,-148
871588,495
871596,1388
871604,1565
871612,640
871620,-613
871628,-1201
871636,-1023
871644,-650
871652,-474
871660,-370
871668,-243
871676,-180
871684,-152
871692,-95
871700,-29
871708,-5
871716,-30
871724,-50
871732,-60
871740,-66
871748,-60
871756,-19
871764,49
871772,82
871780,60
871788,38
871796,54
871804,103
871812,127
871820,113
871828,99
871836,92
871844,88
871852,52
871860,-11
871868,-78
871876,-149
871884,-202
871892,-225
871900,-209
871908,-181
871916,-163
871924,-160
871932,-170
871940,-165
871948,-135
871956,-86
871964,-66
871972,-102
871980,-132
871988,-106
871996,-61
872004,-36
872012,-44
872020,-47
872028,-46
872036,-64
872044,-102
872052,-128
872060,-113
872068,-79
872076,-59
872084,-33
872092,-1
872100,37
872108,61
872116,56
872124,32
872132,-4
872140,-40
872148,-59
872156,-47
872164,-11
872172,2
872180,-16
872188,-44
872196,-79
872204,-110
872212,-157
872220,-214
872228,-241
872236,-210
872244,-151
872252,-196
872260,-272
872268,24
872276,817
872284,1434
872292,1103
872300,-21
872308,-1008
872316,-1220
872324,-863
872332,-502
872340,-360
872348,-353
872356,-412
872364,-468
872372,-433
872380,-357
872388,-319
872396,-309
872404,-259
872412,-159
872420,-66
872428,-50
872436,-103
872444,-137
872452,-132
872460,-101
872468,-60
872476,-15
872484,46
872492,104
872500,146
872508,151
872516,100
872524,20
872532,-48
872540,-92
872548,-106
872556,-118
872564,-98
872572,-60
872580,-17
872588,21
872596,48
872604,61
872612,53
872620,27
872628,-7
872636,-50
872644,-75
872652,-71
872660,-52
872668,-68
872676,-143
872684,-241
872692,-325
872700,-377
872708,-401
872716,-416
872724,-400
872732,-371
872740,-348
872748,-313
872756,-243
872764,-132
872772,-21
872780,69
872788,111
872796,103
872804,75
872812,35
872820,25
872828,91
872836,233
872844,420
872852,523
872860,485
872868,382
872876,326
872884,328
872892,297
872900,164
872908,-10
872916,-116
872924,-152
872932,-265
872940,-401
872948,-106
872956,707
872964,1269
872972,792
872980,-456
872988,-1406
872996,-1481
873004,-1089
873012,-829
873020,-758
873028,-656
873036,-547
873044,-510
873052,-479
873060,-422
873068,-351
873076,-287
873084,-236
873092,-214
873100,-205
873108,-197
873116,-185
873124,-146
873132,-75
873140,-12
873148,20
873156,48
873164,111
873172,185
873180,246
873188,280
873196,299
873204,289
873212,190
873220,33
873228,-67
873236,-37
873244,85
873252,226
873260,354
873268,444
873276,459
873284,404
873292,297
873300,198
873308,141
873316,112
873324,88
873332,81
873340,90
873348,104
873356,94
873364,77
873372,64
873380,54
873388,26
873396,-54
873404,-149
873412,-208
873420,-221
873428,-208
873436,-187
873444,-184
873452,-232
873460,-304
873468,-329
873476,-254
873484,-127
873492,-97
873500,-170
873508,-227
873516,-234
873524,-207
873532,-142
873540,-63
873548,10
873556,62
873564,67
873572,88
873580,204
873588,318
873596,257
873604,59
873612,152
873620,859
873628,1709
873636,1787
873644,892
873652,-192
873660,-667
873668,-544
873676,-320
873684,-292
873692,-348
873700,-328
873708,-215
873716,-84
873724,-36
873732,-78
873740,-78
873748,27
873756,131
873764,101
873772,-54
873780,-224
873788,-323
873796,-305
873804,-192
873812,-77
873820,-7
873828,33
873836,-8
873844,-184
873852,-402
873860,-430
873868,-158
873876,220
873884,417
873892,378
873900,251
873908,119
873916,-14
873924,-113
873932,-157
873940,-164
873948,-144
873956,-118
873964,-87
873972,-51
873980,-15
873988,23
873996,52
874004,27
874012,-35
874020,-71
874028,-56
874036,-28
874044,-31
874052,-76
874060,-127
874068,-154
874076,-158
874084,-160
874092,-155
874100,-154
874108,-162
874116,-185
874124,-216
874132,-245
874140,-264
874148,-288
874156,-315
874164,-310
874172,-240
874180,-155
874188,-123
874196,-176
874204,-282
874212,-375
874220,-442
874228,-489
874236,-481
874244,-366
874252,-169
874260,-24
874268,-73
874276,-199
874284,51
874292,771
874300,1288
874308,922
874316,-93
874324,-893
874332,-996
874340,-711
874348,-492
874356,-374
874364,-210
874372,-75
874380,64
874388,338
874396,602
874404,622
874412,437
874420,292
874428,328
874436,431
874444,434
874452,343
874460,257
874468,179
874476,108
874484,68
874492,27
874500,-47
874508,-135
874516,-227
874524,-286
874532,-291
874540,-270
874548,-279
874556,-327
874564,-366
874572,-351
874580,-304
874588,-277
874596,-280
874604,-266
874612,-236
874620,-239
874628,-289
874636,-354
874644,-380
874652,-335
874660,-284
874668,-273
874676,-296
874684,-301
874692,-269
874700,-241
874708,-226
874716,-214
874724,-198
874732,-204
874740,-241
874748,-284
874756,-310
874764,-314
874772,-294
874780,-260
874788,-210
874796,-166
874804,-125
874812,-73
874820,-22
874828,-24
874836,-73
874844,-127
874852,-166
874860,-179
874868,-123
874876,-8
874884,109
874892,167
874900,183
874908,240
874916,295
874924,203
874932,-83
874940,-276
874948,95
874956,924
874964,1346
874972,738
874980,-446
874988,-1178
874996,-1077
875004,-631
875012,-380
875020,-326
875028,-244
875036,-142
875044,-71
875052,19
875060,67
875068,34
875076,34
875084,132
875092,246
875100,234
875108,87
875116,-74
875124,-142
875132,-163
875140,-226
875148,-309
875156,-391
875164,-445
875172,-400
875180,-272
875188,-157
875196,-111
875204,-101
875212,-66
875220,-17
875228,-15
875236,-53
875244,-65
875252,-45
875260,-34
875268,-44
875276,-47
875284,-59
875292,-107
875300,-172
875308,-200
875316,-172
875324,-105
875332,-42
875340,56
875348,226
875356,427
875364,566
875372,581
875380,487
875388,347
875396,225
875404,144
875412,107
875420,95
875428,69
875436,22
875444,-10
875452,-18
875460,-1
875468,32
875476,75
875484,89
875492,58
875500,12
875508,-15
875516,-14
875524,-25
875532,-68
875540,-90
875548,-87
875556,-140
875564,-312
875572,-355
875580,181
875588,1126
875596,1555
875604,863
875612,-398
875620,-1181
875628,-1127
875636,-723
875644,-489
875652,-421
875660,-331
875668,-248
875676,-221
875684,-208
875692,-204
875700,-194
875708,-170
875716,-150
875724,-129
875732,-102
875740,-65
875748,-35
875756,4
875764,52
875772,96
875780,131
875788,174
875796,220
875804,252
875812,254
875820,236
875828,210
875836,165
875844,91
875852,7
875860,-47
875868,-56
875876,-30
875884,3
875892,-1
875900,-53
875908,-112
875916,-131
875924,-116
875932,-106
875940,-119
875948,-127
875956,-108
875964,-69
875972,-33
875980,-19
875988,-25
875996,-36
876004,-39
876012,-41
876020,-40
876028,-36
876036,-22
876044,5
876052,37
876060,41
876068,3
876076,-47
876084,-76
876092,-83
876100,-106
876108,-154
876116,-202
876124,-207
876132,-178
876140,-154
876148,-180
876156,-248
876164,-304
876172,-312
876180,-291
876188,-285
876196,-310
876204,-325
876212,-312
876220,-257
876228,-145
876236,-48
876244,-85
876252,-230
876260,-84
876268,639
876276,1383
876284,1258
876292,188
876300,-904
876308,-1189
876316,-813
876324,-421
876332,-302
876340,-271
876348,-202
876356,-164
876364,-148
876372,-134
876380,-121
876388,-121
876396,-124
876404,-118
876412,-85
876420,-34
876428,6
876436,10
876444,-1
876452,-11
876460,-31
876468,-45
876476,-10
876484,77
876492,175
876500,223
876508,211
876516,172
876524,124
876532,45
876540,-55
876548,-131
876556,-154
876564,-154
876572,-159
876580,-150
876588,-101
876596,-31
876604,8
876612,-10
876620,-44
876628,-47
876636,-15
876644,28
876652,55
876660,79
876668,99
876676,103
876684,85
876692,60
876700,15
876708,-51
876716,-90
876724,-68
876732,-17
876740,16
876748,6
876756,-16
876764,-27
876772,-51
876780,-73
876788,-40
876796,4
876804,-28
876812,-135
876820,-221
876828,-238
876836,-212
876844,-189
876852,-167
876860,-130
876868,-112
876876,-142
876884,-178
876892,-199
876900,-195
876908,-142
876916,-104
876924,-142
876932,-216
876940,-232
876948,-211
876956,-227
876964,-54
876972,620
876980,1416
876988,1436
876996,448
877004,-721
877012,-1166
877020,-910
877028,-559
877036,-430
877044,-363
877052,-228
877060,-115
877068,-50
877076,-18
877084,-33
877092,-65
877100,-92
877108,-113
877116,-129
877124,-147
877132,-161
877140,-157
877148,-121
877156,-69
877164,-8
877172,39
877180,25
877188,-34
877196,-80
877204,-66
877212,-4
877220,54
877228,38
877236,-40
877244,-120
877252,-179
877260,-220
877268,-247
877276,-237
877284,-192
877292,-145
877300,-127
877308,-121
877316,-101
877324,-78
877332,-79
877340,-93
877348,-101
877356,-117
877364,-148
877372,-161
877380,-133
877388,-78
877396,-35
877404,-19
877412,-23
877420,-47
877428,-67
877436,-70
877444,-62
877452,-39
877460,-5
877468,36
877476,65
877484,50
877492,-7
877500,-32
877508,17
877516,89
877524,112
877532,88
877540,72
877548,89
877556,51
877564,-49
877572,-136
877580,-154
877588,-115
877596,-75
877604,-33
877612,35
877620,70
877628,-33
877636,-245
877644,-195
877652,467
877660,1339
877668,1478
877676,572
877684,-614
877692,-1131
877700,-904
877708,-524
877716,-362
877724,-311
877732,-216
877740,-145
877748,-126
877756,-126
877764,-95
877772,-7
877780,74
877788,89
877796,43
877804,-1
877812,-7
877820,0
877828,4
877836,11
877844,31
877852,58
877860,75
877868,75
877876,51
877884,15
877892,-15
877900,-23
877908,-27
877916,-66
877924,-140
877932,-204
877940,-225
877948,-216
877956,-199
877964,-182
877972,-158
877980,-130
877988,-113
877996,-112
878004,-128
878012,-144
878020,-148
878028,-133
878036,-115
878044,-102
878052,-95
878060,-86
878068,-80
878076,-87
878084,-108
878092,-126
878100,-133
878108,-123
878116,-122
878124,-134
878132,-142
878140,-127
878148,-95
878156,-74
878164,-73
878172,-66
878180,-35
878188,-13
878196,-21
878204,-58
878212,-87
878220,-83
878228,-47
878236,-7
878244,25
878252,34
878260,23
878268,11
878276,16
878284,29
878292,37
878300,30
878308,27
878316,56
878324,65
878332,-43
878340,-138
878348,214
878356,1055
878364,1607
878372,1140
878380,-47
878388,-925
878396,-973
878404,-592
878412,-344
878420,-284
878428,-218
878436,-156
878444,-134
878452,-101
878460,-68
878468,-63
878476,-68
878484,-75
878492,-78
878500,-87
878508,-90
878516,-74
878524,-67
878532,-76
878540,-84
878548,-74
878556,-70
878564,-61
878572,-15
878580,42
878588,70
878596,53
878604,27
878612,16
878620,-24
878628,-110
878636,-197
878644,-232
878652,-219
878660,-177
878668,-118
878676,-64
878684,-51
878692,-82
878700,-131
878708,-155
878716,-136
878724,-95
878732,-50
878740,-22
878748,-22
878756,-49
878764,-82
878772,-99
878780,-86
878788,-56
878796,-40
878804,-55
878812,-79
878820,-100
878828,-114
878836,-118
878844,-108
878852,-98
878860,-92
878868,-87
878876,-82
878884,-112
878892,-163
878900,-170
878908,-94
878916,-21
878924,-39
878932,-125
878940,-162
878948,-110
878956,-51
878964,-53
878972,-70
878980,-59
878988,-40
878996,-60
879004,-84
879012,-75
879020,-57
879028,-75
879036,-110
879044,-92
879052,-54
879060,-126
879068,-210
879076,129
879084,956
879092,1520
879100,1072
879108,-117
879116,-1027
879124,-1098
879132,-714
879140,-444
879148,-346
879156,-254
879164,-183
879172,-189
879180,-196
879188,-166
879196,-116
879204,-64
879212,-19
879220,8
879228,7
879236,-11
879244,-25
879252,-21
879260,-4
879268,16
879276,29
879284,30
879292,15
879300,5
879308,18
879316,49
879324,72
879332,71
879340,33
879348,-24
879356,-75
879364,-133
879372,-210
879380,-271
879388,-280
879396,-245
879404,-200
879412,-186
879420,-198
879428,-208
879436,-205
879444,-205
879452,-201
879460,-199
879468,-163
879476,-75
879484,14
879492,10
879500,-69
879508,-157
879516,-177
879524,-126
879532,-84
879540,-96
879548,-142
879556,-161
879564,-98
879572,1
879580,39
879588,-10
879596,-54
879604,-50
879612,-37
879620,-30
879628,-9
879636,32
879644,50
879652,15
879660,-15
879668,-19
879676,-24
879684,-42
879692,-37
879700,6
879708,42
879716,26
879724,-7
879732,-25
879740,-45
879748,-75
879756,-66
879764,-21
879772,-50
879780,-207
879788,-176
879796,424
879804,1298
879812,1526
879820,739
879828,-380
879836,-895
879844,-688
879852,-313
879860,-168
879868,-144
879876,-99
879884,-70
879892,-58
879900,-34
879908,-40
879916,-78
879924,-117
879932,-109
879940,-56
879948,3
879956,11
879964,-17
879972,-34
879980,-26
879988,0
879996,17
880004,32
880012,63
880020,78
880028,56
880036,37
880044,76
880052,126
880060,103
880068,11
880076,-99
880084,-155
880092,-155
880100,-150
880108,-157
880116,-169
880124,-172
880132,-167
880140,-162
880148,-161
880156,-158
880164,-138
880172,-118
880180,-108
880188,-107
880196,-107
880204,-95
880212,-69
880220,-62
880228,-92
880236,-128
880244,-137
880252,-122
880260,-131
880268,-158
880276,-144
880284,-89
880292,-39
880300,-35
880308,-53
880316,-49
880324,-36
880332,-37
880340,-54
880348,-67
880356,-93
880364,-151
880372,-212
880380,-235
880388,-219
880396,-205
880404,-196
880412,-156
880420,-67
880428,25
880436,68
880444,55
880452,23
880460,2
880468,-1
880476,29
880484,121
880492,225
880500,216
880508,69
880516,131
880524,759
880532,1592
880540,1694
880548,767
880556,-420
880564,-1007
880572,-825
880580,-387
880588,-406
880596,-965
880604,-1512
880612,-1527
880620,-1001
880628,-420
880636,-165
880644,-124
880652,-38
880660,-1
880668,-103
880676,-164
880684,-131
880692,-72
880700,-6
880708,54
880716,119
880724,228
880732,346
880740,434
880748,441
880756,359
880764,247
880772,128
880780,-14
880788,-200
880796,-410
880804,-597
880812,-717
880820,-752
880828,-703
880836,-572
880844,-413
880852,-290
880860,-221
880868,-184
880876,-149
880884,-107
880892,-62
880900,-13
880908,50
880916,117
880924,148
880932,121
880940,80
880948,51
880956,28
880964,13
880972,28
880980,92
880988,169
880996,209
881004,197
881012,169
881020,170
881028,178
881036,189
881044,218
881052,262
881060,272
881068,221
881076,131
881084,92
881092,98
881100,52
881108,-71
881116,-185
881124,-195
881132,-133
881140,-71
881148,-14
881156,53
881164,13
881172,-213
881180,-285
881188,250
881196,1109
881204,1353
881212,552
881220,-578
881228,-1059
881236,-773
881244,-319
881252,-125
881260,-104
881268,-106
881276,-131
881284,-143
881292,-99
881300,-65
881308,-123
881316,-243
881324,-325
881332,-337
881340,-323
881348,-318
881356,-286
881364,-234
881372,-240
881380,-320
881388,-418
881396,-483
881404,-526
881412,-539
881420,-488
881428,-345
881436,-137
881444,84
881452,268
881460,370
881468,375
881476,322
881484,255
881492,176
881500,87
881508,13
881516,-21
881524,-31
881532,-45
881540,-80
881548,-119
881556,-133
881564,-133
881572,-179
881580,-268
881588,-316
881596,-223
881604,-60
881612,2
881620,-52
881628,-104
881636,-67
881644,-7
881652,-1
881660,-24
881668,-41
881676,-45
881684,-49
881692,-57
881700,-55
881708,-64
881716,-68
881724,-59
881732,-47
881740,-52
881748,-63
881756,-62
881764,-26
881772,11
881780,32
881788,7
881796,-48
881804,-70
881812,-17
881820,32
881828,-51
881836,-202
881844,0
881852,767
881860,1477
881868,1285
881876,206
881884,-825
881892,-1073
881900,-740
881908,-432
881916,-358
881924,-323
881932,-227
881940,-135
881948,-60
881956,-12
881964,-13
881972,-17
881980,5
881988,34
881996,46
882004,36
882012,16
882020,9
882028,26
882036,61
882044,100
882052,116
882060,115
882068,117
882076,130
882084,136
882092,121
882100,78
882108,22
882116,-41
882124,-106
882132,-165
882140,-211
882148,-223
882156,-196
882164,-151
882172,-124
882180,-135
882188,-145
882196,-124
882204,-83
882212,-83
882220,-114
882228,-119
882236,-75
882244,-19
882252,6
882260,1
882268,-29
882276,-70
882284,-102
882292,-80
882300,-37
882308,-16
882316,-40
882324,-80
882332,-98
882340,-73
882348,-10
882356,61
882364,85
882372,70
882380,45
882388,41
882396,31
882404,6
882412,-4
882420,11
882428,6
882436,-22
882444,-60
882452,-140
882460,-312
882468,-370
882476,86
882484,927
882492,1316
882500,692
882508,-467
882516,-1195
882524,-1160
882532,-772
882540,-466
882548,-295
882556,-167
882564,-112
882572,-110
882580,-89
882588,-48
882596,-4
882604,37
882612,38
882620,-28
882628,-84
882636,-86
882644,-54
882652,-17
882660,23
882668,79
882676,130
882684,113
882692,38
882700,-22
882708,17
882716,140
882724,245
882732,230
882740,117
882748,14
882756,-22
882764,-31
882772,-44
882780,-48
882788,-32
882796,0
882804,35
882812,51
882820,45
882828,23
882836,13
882844,46
882852,114
882860,126
882868,11
882876,-178
882884,-292
882892,-242
882900,-84
882908,48
882916,71
882924,-28
882932,-181
882940,-258
882948,-190
882956,-65
882964,-34
882972,-112
882980,-186
882988,-176
882996,-129
883004,-132
883012,-173
883020,-210
883028,-236
883036,-237
883044,-231
883052,-256
883060,-359
883068,-340
883076,109
883084,794
883092,1034
883100,451
883108,-464
883116,-927
883124,-773
883132,-459
883140,-341
883148,-343
883156,-304
883164,-239
883172,-168
883180,-117
883188,-125
883196,-173
883204,-194
883212,-165
883220,-118
883228,-88
883236,-54
883244,0
883252,43
883260,30
883268,-35
883276,-107
883284,-136
883292,-116
883300,-69
883308,-35
883316,-36
883324,-49
883332,-41
883340,-18
883348,-24
883356,-100
883364,-154
883372,-119
883380,-54
883388,-37
883396,-50
883404,-62
883412,-67
883420,-77
883428,-102
883436,-97
883444,-42
883452,-7
883460,-14
883468,-37
883476,-63
883484,-70
883492,-44
883500,-24
883508,-27
883516,-38
883524,-59
883532,-81
883540,-101
883548,-115
883556,-123
883564,-117
883572,-107
883580,-120
883588,-147
883596,-165
883604,-155
883612,-128
883620,-108
883628,-89
883636,-59
883644,-88
883652,-183
883660,-43
883668,579
883676,1196
883684,1047
883692,87
883700,-850
883708,-1069
883716,-748
883724,-468
883732,-398
883740,-315
883748,-153
883756,-42
883764,-5
883772,-10
883780,-13
883788,12
883796,35
883804,22
883812,-14
883820,-42
883828,-45
883836,-30
883844,18
883852,93
883860,131
883868,72
883876,-24
883884,-57
883892,-15
883900,26
883908,15
883916,-12
883924,-28
883932,-39
883940,-54
883948,-50
883956,-26
883964,-28
883972,-77
883980,-130
883988,-157
883996,-131
884004,-57
884012,-18
884020,-69
884028,-146
884036,-162
884044,-92
884052,-12
884060,1
884068,-57
884076,-106
884084,-134
884092,-162
884100,-178
884108,-182
884116,-183
884124,-145
884132,-91
884140,-64
884148,-93
884156,-156
884164,-205
884172,-201
884180,-170
884188,-160
884196,-185
884204,-181
884212,-111
884220,-89
884228,-214
884236,-238
884244,279
884252,1150
884260,1458
884268,680
884276,-554
884284,-1214
884292,-1055
884300,-634
884308,-410
884316,-318
884324,-172
884332,-36
884340,36
884348,83
884356,103
884364,82
884372,26
884380,-6
884388,24
884396,84
884404,103
884412,74
884420,30
884428,17
884436,44
884444,84
884452,104
884460,74
884468,24
884476,-3
884484,0
884492,19
884500,24
884508,4
884516,-21
884524,-20
884532,-13
884540,-35
884548,-84
884556,-117
884564,-104
884572,-71
884580,-53
884588,-25
884596,29
884604,58
884612,35
884620,4
884628,9
884636,27
884644,29
884652,3
884660,-19
884668,-19
884676,-10
884684,-4
884692,8
884700,15
884708,23
884716,15
884724,-21
884732,-82
884740,-130
884748,-148
884756,-149
884764,-144
884772,-135
884780,-84
884788,-2
884796,9
884804,-127
884812,-181
884820,301
884828,1186
884836,1592
884844,900
884852,-358
884860,-1133
884868,-1073
884876,-704
884884,-509
884892,-445
884900,-308
884908,-158
884916,-70
884924,-35
884932,-32
884940,-23
884948,-7
884956,-16
884964,-62
884972,-110
884980,-121
884988,-101
884996,-83
885004,-73
885012,-60
885020,-38
885028,-14
885036,6
885044,27
885052,20
885060,-20
885068,-81
885076,-120
885084,-135
885092,-150
885100,-178
885108,-198
885116,-190
885124,-167
885132,-151
885140,-145
885148,-126
885156,-81
885164,-24
885172,2
885180,-8
885188,-31
885196,-54
885204,-77
885212,-97
885220,-105
885228,-82
885236,-43
885244,-24
885252,-34
885260,-60
885268,-101
885276,-148
885284,-171
885292,-124
885300,-26
885308,59
885316,68
885324,5
885332,-56
885340,-72
885348,-68
885356,-73
885364,-87
885372,-93
885380,-77
885388,-24
885396,55
885404,130
885412,179
885420,190
885428,203
885436,225
885444,246
885452,237
885460,206
885468,198
885476,167
885484,30
885492,-83
885500,280
885508,1125
885516,1637
885524,1083
885532,-169
885540,-1076
885548,-1118
885556,-726
885564,-473
885572,-429
885580,-385
885588,-324
885596,-268
885604,-193
885612,-128
885620,-114
885628,-144
885636,-163
885644,-131
885652,-68
885660,-41
885668,-73
885676,-117
885684,-120
885692,-120
885700,-168
885708,-225
885716,-204
885724,-108
885732,-19
885740,28
885748,88
885756,200
885764,322
885772,328
885780,243
885788,206
885796,228
885804,191
885812,40
885820,-102
885828,-132
885836,-91
885844,-106
885852,-214
885860,-337
885868,-450
885876,-579
885884,-698
885892,-766
885900,-761
885908,-676
885916,-560
885924,-481
885932,-444
885940,-401
885948,-327
885956,-258
885964,-209
885972,-166
885980,-100
885988,-32
885996,-12
886004,-59
886012,-137
886020,-213
886028,-233
886036,-163
886044,-48
886052,31
886060,64
886068,85
886076,122
886084,144
886092,149
886100,148
886108,151
886116,142
886124,125
886132,114
886140,115
886148,119
886156,122
886164,58
886172,-90
886180,-21
886188,566
886196,1225
886204,1116
886212,97
886220,-996
886228,-1367
886236,-1105
886244,-811
886252,-750
886260,-694
886268,-469
886276,-200
886284,36
886292,204
886300,226
886308,108
886316,-63
886324,-184
886332,-204
886340,-141
886348,-78
886356,-60
886364,-40
886372,-9
886380,25
886388,43
886396,25
886404,-20
886412,-50
886420,-56
886428,-65
886436,-94
886444,-109
886452,-109
886460,-95
886468,-78
886476,-72
886484,-91
886492,-109
886500,-115
886508,-97
886516,-75
886524,-53
886532,-60
886540,-82
886548,-98
886556,-94
886564,-71
886572,-41
886580,-20
886588,-2
886596,14
886604,22
886612,15
886620,3
886628,0
886636,1
886644,19
886652,70
886660,134
886668,169
886676,185
886684,209
886692,258
886700,284
886708,231
886716,118
886724,36
886732,75
886740,227
886748,334
886756,276
886764,124
886772,69
886780,144
886788,177
886796,60
886804,-86
886812,-64
886820,116
886828,286
886836,374
886844,484
886852,670
886860,762
886868,563
886876,170
886884,-118
886892,-203
886900,-266
886908,-371
886916,-131
886924,628
886932,1247
886940,925
886948,-187
886956,-1136
886964,-1291
886972,-928
886980,-634
886988,-554
886996,-484
887004,-370
887012,-291
887020,-247
887028,-219
887036,-197
887044,-170
887052,-146
887060,-138
887068,-144
887076,-162
887084,-183
887092,-181
887100,-153
887108,-126
887116,-124
887124,-118
887132,-64
887140,33
887148,113
887156,138
887164,126
887172,91
887180,26
887188,-66
887196,-159
887204,-224
887212,-228
887220,-181
887228,-108
887236,-68
887244,-108
887252,-193
887260,-230
887268,-183
887276,-107
887284,-83
887292,-120
887300,-169
887308,-180
887316,-156
887324,-142
887332,-161
887340,-232
887348,-337
887356,-412
887364,-390
887372,-318
887380,-299
887388,-314
887396,-240
887404,-69
887412,59
887420,33
887428,-74
887436,-119
887444,-68
887452,-5
887460,52
887468,102
887476,138
887484,170
887492,185
887500,175
887508,150
887516,139
887524,117
887532,59
887540,-22
887548,-43
887556,12
887564,76
887572,62
887580,-30
887588,-130
887596,-188
887604,-204
887612,-227
887620,-304
887628,-420
887636,-479
887644,-439
887652,-335
887660,-208
887668,-93
887676,-41
887684,-141
887692,-300
887700,-82
887708,625
887716,1132
887724,714
887732,-367
887740,-1121
887748,-1164
887756,-883
887764,-533
887772,-39
887780,429
887788,459
887796,148
887804,60
887812,336
887820,549
887828,392
887836,121
887844,57
887852,151
887860,209
887868,109
887876,-84
887884,-122
887892,94
887900,275
887908,88
887916,-336
887924,-556
887932,-408
887940,-186
887948,-191
887956,-355
887964,-436
887972,-389
887980,-350
887988,-376
887996,-406
888004,-382
888012,-301
888020,-204
888028,-140
888036,-130
888044,-159
888052,-193
888060,-190
888068,-133
888076,-77
888084,-67
888092,-109
888100,-128
888108,-73
888116,29
888124,70
888132,15
888140,-53
888148,-44
888156,9
888164,26
888172,8
888180,12
888188,57
888196,95
888204,102
888212,120
888220,141
888228,125
888236,58
888244,-14
888252,-44
888260,2
888268,94
888276,188
888284,254
888292,273
888300,226
888308,120
888316,44
888324,92
888332,212
888340,209
888348,6
888356,-230
888364,-307
888372,-266
888380,-248
888388,-250
888396,-156
888404,-4
888412,-5
888420,-194
888428,-125
888436,547
888444,1289
888452,1206
888460,199
888468,-865
888476,-1191
888484,-882
888492,-524
888500,-386
888508,-282
888516,-124
888524,-23
888532,-34
888540,-113
888548,-163
888556,-138
888564,-105
888572,-95
888580,-50
888588,47
888596,117
888604,96
888612,33
888620,39
888628,118
888636,191
888644,183
888652,123
888660,82
888668,78
888676,106
888684,132
888692,135
888700,100
888708,31
888716,-46
888724,-110
888732,-163
888740,-193
888748,-179
888756,-115
888764,-29
888772,78
888780,177
888788,269
888796,483
888804,736
888812,665
888820,154
888828,-403
888836,-560
888844,-326
888852,-114
888860,-157
888868,-282
888876,-297
888884,-249
888892,-189
888900,-112
888908,-61
888916,-54
888924,-71
888932,-104
888940,-156
888948,-206
888956,-234
888964,-224
888972,-178
888980,-131
888988,-108
888996,-113
889004,-137
889012,-157
889020,-162
889028,-153
889036,-149
889044,-179
889052,-236
889060,-251
889068,-205
889076,-157
889084,-156
889092,-156
889100,-100
889108,-5
889116,40
889124,43
889132,53
889140,47
889148,2
889156,-41
889164,-84
889172,-64
889180,302
889188,1044
889196,1496
889204,1016
889212,-148
889220,-1027
889228,-1083
889236,-705
889244,-432
889252,-303
889260,-158
889268,3
889276,86
889284,92
889292,-23
889300,-325
889308,-498
889316,-270
889324,54
889332,-27
889340,-517
889348,-886
889356,-771
889364,-372
889372,-88
889380,-8
889388,64
889396,127
889404,124
889412,126
889420,144
889428,178
889436,192
889444,157
889452,106
889460,72
889468,78
889476,117
889484,164
889492,193
889500,172
889508,111
889516,76
889524,105
889532,102
889540,9
889548,-108
889556,-155
889564,-145
889572,-166
889580,-218
889588,-224
889596,-172
889604,-152
889612,-179
889620,-169
889628,-98
889636,-66
889644,-122
889652,-193
889660,-191
889668,-150
889676,-142
889684,-164
889692,-181
889700,-199
889708,-245
889716,-280
889724,-284
889732,-278
889740,-224
889748,-94
889756,45
889764,51
889772,-49
889780,-83
889788,40
889796,211
889804,326
889812,330
889820,182
889828,-114
889836,-376
889844,-439
889852,-381
889860,-448
889868,-585
889876,-290
889884,550
889892,1155
889900,807
889908,-219
889916,-987
889924,-990
889932,-561
889940,-229
889948,-103
889956,-9
889964,47
889972,17
889980,-52
889988,-118
889996,-148
890004,-127
890012,-104
890020,-113
890028,-120
890036,-87
890044,-56
890052,-68
890060,-83
890068,-57
890076,12
890084,104
890092,208
890100,296
890108,321
890116,264
890124,173
890132,119
890140,100
890148,39
890156,-33
890164,-76
890172,-100
890180,-123
890188,-121
890196,-63
890204,-9
890212,-51
890220,-194
890228,-373
890236,-460
890244,-386
890252,-257
890260,-125
890268,70
890276,272
890284,312
890292,121
890300,-140
890308,-253
890316,-203
890324,-178
890332,-268
890340,-335
890348,-328
890356,-270
890364,-154
890372,-38
890380,23
890388,47
890396,62
890404,79
890412,78
890420,57
890428,23
890436,-1
890444,-19
890452,-38
890460,-46
890468,-12
890476,55
890484,99
890492,76
890500,12
890508,-49
890516,-85
890524,-84
890532,-40
890540,2
890548,-54
890556,-197
890564,-97
890572,551
890580,1308
890588,1331
890596,436
890604,-611
890612,-1004
890620,-746
890628,-384
890636,-224
890644,-194
890652,-177
890660,-144
890668,-11
890676,188
890684,306
890692,292
890700,213
890708,151
890716,131
890724,91
890732,-16
890740,-159
890748,-239
890756,-230
890764,-191
890772,-168
890780,-141
890788,-76
890796,-13
890804,-42
890812,-128
890820,-179
890828,-203
890836,-273
890844,-390
890852,-514
890860,-527
890868,-386
890876,-267
890884,-346
890892,-592
890900,-816
890908,-836
890916,-631
890924,-350
890932,-117
890940,90
890948,299
890956,468
890964,516
890972,420
890980,282
890988,207
890996,161
891004,85
891012,29
891020,43
891028,89
891036,131
891044,147
891052,126
891060,60
891068,-28
891076,-97
891084,-111
891092,-97
891100,-76
891108,-57
891116,-53
891124,-79
891132,-109
891140,-111
891148,-96
891156,-73
891164,-58
891172,-49
891180,-46
891188,-45
891196,-43
891204,-39
891212,-5
891220,17
891228,-59
891236,-166
891244,84
891252,836
891260,1466
891268,1234
891276,237
891284,-692
891292,-929
891300,-673
891308,-455
891316,-433
891324,-415
891332,-317
891340,-166
891348,-95
891356,-227
891364,-374
891372,-316
891380,-173
891388,-164
891396,-278
891404,-296
891412,-106
891420,141
891428,228
891436,136
891444,-19
891452,-142
891460,-155
891468,-108
891476,-146
891484,-248
891492,-250
891500,-127
891508,-112
891516,-376
891524,-707
891532,-778
891540,-571
891548,-340
891556,-239
891564,-191
891572,-106
891580,-44
891588,-46
891596,-59
891604,-9
891612,70
891620,127
891628,165
891636,211
891644,251
891652,208
891660,59
891668,-116
891676,-200
891684,-160
891692,-65
891700,25
891708,101
891716,137
891724,102
891732,49
891740,39
891748,49
891756,9
891764,-73
891772,-106
891780,-47
891788,38
891796,62
891804,38
891812,42
891820,82
891828,126
891836,122
891844,50
891852,-71
891860,-158
891868,-145
891876,-106
891884,-199
891892,-373
891900,-166
891908,660
891916,1413
891924,1236
891932,208
891940,-744
891948,-969
891956,-696
891964,-430
891972,-298
891980,-211
891988,-188
891996,-211
892004,-164
892012,-94
892020,-98
892028,-155
892036,-187
892044,-174
892052,-174
892060,-202
892068,-206
892076,-174
892084,-175
892092,-224
892100,-262
892108,-231
892116,-229
892124,-393
892132,-623
892140,-707
892148,-562
892156,-217
892164,225
892172,619
892180,836
892188,790
892196,569
892204,432
892212,470
892220,541
892228,590
892236,616
892244,582
892252,446
892260,235
892268,30
892276,-110
892284,-211
892292,-310
892300,-369
892308,-364
892316,-354
892324,-350
892332,-318
892340,-275
892348,-274
892356,-306
892364,-280
892372,-179
892380,-85
892388,-63
892396,-98
892404,-144
892412,-167
892420,-152
892428,-133
892436,-126
892444,-115
892452,-82
892460,-46
892468,-73
892476,-148
892484,-199
892492,-159
892500,-88
892508,-51
892516,-32
892524,4
892532,10
892540,-54
892548,-207
892556,-372
892564,-418
892572,-93
892580,710
892588,1476
892596,1462
892604,555
892612,-509
892620,-960
892628,-762
892636,-411
892644,-270
892652,-242
892660,-200
892668,-218
892676,-349
892684,-572
892692,-780
892700,-808
892708,-649
892716,-386
892724,-123
892732,53
892740,105
892748,54
892756,-51
892764,-175
892772,-225
892780,-88
892788,155
892796,355
892804,413
892812,368
892820,319
892828,273
892836,210
892844,131
892852,36
892860,-66
892868,-134
892876,-105
892884,-2
892892,77
892900,105
892908,112
892916,133
892924,139
892932,91
892940,31
892948,9
892956,15
892964,14
892972,-16
892980,-49
892988,-72
892996,-76
893004,-85
893012,-91
893020,-80
893028,-41
893036,-7
893044,-30
893052,-104
893060,-163
893068,-161
893076,-139
893084,-140
893092,-142
893100,-130
893108,-120
893116,-134
893124,-139
893132,-111
893140,-48
893148,43
893156,140
893164,203
893172,180
893180,61
893188,-119
893196,-268
893204,-272
893212,-102
893220,85
893228,47
893236,-277
893244,-477
893252,-8
893260,847
893268,1099
893276,307
893284,-882
893292,-1571
893300,-1582
893308,-1364
893316,-1193
893324,-866
893332,-317
893340,204
893348,533
893356,673
893364,642
893372,498
893380,326
893388,187
893396,68
893404,-60
893412,-187
893420,-235
893428,-132
893436,54
893444,178
893452,155
893460,34
893468,-100
893476,-157
893484,-110
893492,-1
893500,116
893508,206
893516,220
893524,140
893532,-9
893540,-174
893548,-301
893556,-355
893564,-338
893572,-273
893580,-212
893588,-173
893596,-105
893604,-10
893612,72
893620,99
893628,104
893636,141
893644,160
893652,97
893660,-29
893668,-97
893676,-59
893684,0
893692,44
893700,127
893708,228
893716,209
893724,20
893732,-159
893740,-152
893748,-27
893756,5
893764,-112
893772,-230
893780,-278
893788,-335
893796,-447
893804,-476
893812,-326
893820,-63
893828,117
893836,81
893844,-163
893852,-443
893860,-521
893868,-312
893876,-4
893884,100
893892,-64
893900,-95
893908,461
893916,1250
893924,1372
893932,510
893940,-634
893948,-1146
893956,-881
893964,-404
893972,-151
893980,-69
893988,-8
893996,35
894004,78
894012,112
894020,100
894028,59
894036,38
894044,45
894052,69
894060,92
894068,97
894076,75
894084,26
894092,-33
894100,-76
894108,-93
894116,-83
894124,-48
894132,-5
894140,24
894148,42
894156,58
894164,31
894172,-76
894180,-168
894188,-162
894196,-105
894204,-112
894212,-184
894220,-220
894228,-166
894236,-106
894244,-102
894252,-104
894260,-49
894268,36
894276,72
894284,21
894292,-25
894300,-1
894308,16
894316,-77
894324,-259
894332,-404
894340,-426
894348,-410
894356,-447
894364,-483
894372,-424
894380,-284
894388,-141
894396,-27
894404,91
894412,254
894420,430
894428,525
894436,514
894444,382
894452,158
894460,-25
894468,-9
894476,153
894484,245
894492,156
894500,-14
894508,-184
894516,-343
894524,-420
894532,-348
894540,-219
894548,-202
894556,-257
894564,-240
894572,-156
894580,-113
894588,92
894596,772
894604,1531
894612,1492
894620,496
894628,-611
894636,-992
894644,-738
894652,-474
894660,-465
894668,-452
894676,-283
894684,-103
894692,-33
894700,-39
894708,-22
894716,-13
894724,-85
894732,-176
894740,-169
894748,-81
894756,-22
894764,-25
894772,-12
894780,55
894788,62
894796,-79
894804,-301
894812,-465
894820,-516
894828,-437
894836,-278
894844,-129
894852,-71
894860,-80
894868,-71
894876,33
894884,171
894892,221
894900,123
894908,-41
894916,-164
894924,-214
894932,-228
894940,-224
894948,-205
894956,-180
894964,-143
894972,-101
894980,-99
894988,-170
894996,-245
895004,-228
895012,-145
895020,-90
895028,-106
895036,-139
895044,-131
895052,-124
895060,-157
895068,-172
895076,-117
895084,-25
895092,31
895100,9
895108,-49
895116,-65
895124,-43
895132,-54
895140,-112
895148,-149
895156,-67
895164,107
895172,230
895180,211
895188,107
895196,29
895204,10
895212,-28
895220,-111
895228,-141
895236,-138
895244,-294
895252,-523
895260,-364
895268,252
895276,644
895284,265
895292,-472
895300,-641
895308,-62
895316,576
895324,735
895332,561
895340,351
895348,105
895356,-208
895364,-461
895372,-505
895380,-338
895388,-182
895396,-216
895404,-399
895412,-510
895420,-413
895428,-183
895436,-11
895444,17
895452,-29
895460,-59
895468,-47
895476,-7
895484,23
895492,37
895500,54
895508,64
895516,44
895524,-18
895532,-104
895540,-169
895548,-131
895556,-1
895564,152
895572,271
895580,308
895588,230
895596,92
895604,-23
895612,-27
895620,112
895628,273
895636,306
895644,228
895652,149
895660,105
895668,116
895676,206
895684,331
895692,389
895700,335
895708,231
895716,217
895724,335
895732,510
895740,649
895748,689
895756,559
895764,259
895772,-100
895780,-443
895788,-730
895796,-838
895804,-757
895812,-646
895820,-609
895828,-572
895836,-481
895844,-432
895852,-480
895860,-498
895868,-440
895876,-485
895884,-750
895892,-785
895900,-236
895908,354
895916,151
895924,-793
895932,-1531
895940,-1395
895948,-745
895956,-326
895964,-377
895972,-565
895980,-645
895988,-630
895996,-595
896004,-690
896012,-1008
896020,-1368
896028,-1459
896036,-1173
896044,-741
896052,-424
896060,-261
896068,-152
896076,-45
896084,68
896092,259
896100,586
896108,972
896116,1223
896124,1307
896132,1283
896140,1190
896148,1066
896156,883
896164,551
896172,86
896180,-182
896188,90
896196,632
896204,791
896212,375
896220,-81
896228,-97
896236,-62
896244,-687
896252,-1869
896260,-2638
896268,-2278
896276,-1120
896284,-12
896292,563
896300,736
896308,771
896316,660
896324,385
896332,173
896340,262
896348,606
896356,892
896364,886
896372,644
896380,265
896388,-225
896396,-754
896404,-1084
896412,-962
896420,-424
896428,145
896436,444
896444,596
896452,839
896460,1129
896468,1283
896476,1263
896484,1175
896492,1050
896500,808
896508,418
896516,-50
896524,-565
896532,-906
896540,-581
896548,331
896556,921
896564,547
896572,-362
896580,-874
896588,-698
896596,-304
896604,-101
896612,-20
896620,114
896628,257
896636,346
896644,362
896652,343
896660,363
896668,364
896676,265
896684,104
896692,-17
896700,-71
896708,-110
896716,-146
896724,-136
896732,-85
896740,-52
896748,-57
896756,-78
896764,-112
896772,-160
896780,-190
896788,-209
896796,-226
896804,-218
896812,-156
896820,-50
896828,130
896836,404
896844,699
896852,883
896860,896
896868,776
896876,649
896884,578
896892,527
896900,436
896908,290
896916,117
896924,-49
896932,-193
896940,-313
896948,-396
896956,-439
896964,-461
896972,-452
896980,-416
896988,-392
896996,-428
897004,-537
897012,-652
897020,-733
897028,-777
897036,-817
897044,-884
897052,-992
897060,-1029
897068,-883
897076,-585
897084,-321
897092,-242
897100,-317
897108,-407
897116,-435
897124,-393
897132,-300
897140,-184
897148,-95
897156,-48
897164,-67
897172,-170
897180,-108
897188,437
897196,1127
897204,1155
897212,286
897220,-748
897228,-1120
897236,-842
897244,-480
897252,-324
897260,-236
897268,-169
897276,-195
897284,-225
897292,-186
897300,-129
897308,-52
897316,55
897324,171
897332,223
897340,173
897348,78
897356,5
897364,-11
897372,70
897380,232
897388,342
897396,280
897404,105
897412,-35
897420,-55
897428,-32
897436,4
897444,72
897452,114
897460,28
897468,-174
897476,-356
897484,-392
897492,-297
897500,-183
897508,-129
897516,-113
897524,-87
897532,-16
897540,74
897548,111
897556,66
897564,-21
897572,-104
897580,-141
897588,-132
897596,-92
897604,-65
897612,-69
897620,-82
897628,-66
897636,-15
897644,42
897652,68
897660,80
897668,91
897676,108
897684,135
897692,152
897700,109
897708,-5
897716,-151
897724,-264
897732,-331
897740,-370
897748,-395
897756,-352
897764,-270
897772,-338
897780,-623
897788,-737
897796,-152
897804,908
897812,1465
897820,924
897828,-142
897836,-743
897844,-634
897852,-309
897860,-178
897868,-160
897876,-94
897884,-34
897892,-38
897900,-51
897908,-59
897916,-66
897924,-89
897932,-112
897940,-131
897948,-142
897956,-145
897964,-181
897972,-234
897980,-154
897988,72
897996,211
898004,69
898012,-221
898020,-331
898028,-113
898036,218
898044,384
898052,331
898060,140
898068,-78
898076,-205
898084,-207
898092,-171
898100,-175
898108,-210
898116,-219
898124,-200
898132,-186
898140,-165
898148,-108
898156,-26
898164,47
898172,77
898180,138
898188,276
898196,409
898204,436
898212,347
898220,220
898228,133
898236,64
898244,-35
898252,-99
898260,-58
898268,-46
898276,-205
898284,-447
898292,-585
898300,-501
898308,-306
898316,-192
898324,-194
898332,-242
898340,-261
898348,-238
898356,-194
898364,-33
898372,400
898380,1042
898388,1474
898396,1328
898404,763
898412,455
898420,856
898428,1451
898436,1306
898444,252
898452,-954
898460,-1489
898468,-1314
898476,-988
898484,-858
898492,-813
898500,-740
898508,-678
898516,-642
898524,-583
898532,-496
898540,-401
898548,-360
898556,-341
898564,-206
898572,43
898580,264
898588,408
898596,527
898604,622
898612,612
898620,442
898628,196
898636,6
898644,-121
898652,-250
898660,-340
898668,-389
898676,-430
898684,-450
898692,-421
898700,-364
898708,-307
898716,-289
898724,-322
898732,-318
898740,-196
898748,-43
898756,59
898764,93
898772,35
898780,-66
898788,-173
898796,-235
898804,-209
898812,-141
898820,-91
898828,-9
898836,156
898844,304
898852,225
898860,-99
898868,-474
898876,-644
898884,-520
898892,-257
898900,-47
898908,40
898916,66
898924,72
898932,59
898940,36
898948,-4
898956,-29
898964,-36
898972,-44
898980,-56
898988,-56
898996,-82
899004,-211
899012,-392
899020,-229
899028,517
899036,1276
899044,1182
899052,213
899060,-728
899068,-944
899076,-588
899084,-196
899092,17
899100,140
899108,165
899116,31
899124,-116
899132,-152
899140,-69
899148,81
899156,198
899164,206
899172,123
899180,-18
899188,-172
899196,-270
899204,-267
899212,-220
899220,-208
899228,-268
899236,-335
899244,-337
899252,-270
899260,-140
899268,43
899276,231
899284,312
899292,258
899300,169
899308,136
899316,161
899324,192
899332,211
899340,229
899348,228
899356,174
899364,69
899372,13
899380,62
899388,184
899396,294
899404,307
899412,208
899420,80
899428,-48
899436,-221
899444,-424
899452,-553
899460,-541
899468,-418
899476,-297
899484,-226
899492,-207
899500,-204
899508,-211
899516,-211
899524,-206
899532,-201
899540,-183
899548,-97
899556,12
899564,45
899572,18
899580,49
899588,124
899596,70
899604,-135
899612,-10
899620,770
899628,1529
899636,1286
899644,91
899652,-1018
899660,-1296
899668,-958
899676,-637
899684,-570
899692,-513
899700,-313
899708,-48
899716,146
899724,160
899732,46
899740,-55
899748,-119
899756,-233
899764,-391
899772,-511
899780,-564
899788,-547
899796,-433
899804,-305
899812,-259
899820,-271
899828,-241
899836,-141
899844,-30
899852,36
899860,65
899868,68
899876,10
899884,-94
899892,-161
899900,-136
899908,-72
899916,-35
899924,-55
899932,-100
899940,-129
899948,-111
899956,-51
899964,19
899972,52
899980,80
899988,141
899996,231
900004,310
900012,343
900020,341
900028,321
900036,262
900044,157
900052,50
900060,-13
900068,-30
900076,-31
900084,-49
900092,-73
900100,-88
900108,-93
900116,-78
900124,-48
900132,-38
900140,-43
900148,-10
900156,58
900164,89
900172,36
900180,-24
900188,-20
900196,-25
900204,-130
900212,-266
900220,-328
900228,-381
900236,-410
900244,-150
900252,417
900260,671
900268,103
900276,-907
900284,-1414
900292,-1113
900300,-564
900308,-377
900316,-488
900324,-508
900332,-328
900340,-79
900348,137
900356,257
900364,291
900372,323
900380,349
900388,313
900396,222
900404,154
900412,168
900420,254
900428,400
900436,566
900444,626
900452,465
900460,127
900468,-189
900476,-356
900484,-473
900492,-620
900500,-662
900508,-527
900516,-334
900524,-201
900532,-112
900540,-2
900548,103
900556,133
900564,80
900572,-4
900580,-79
900588,-145
900596,-177
900604,-168
900612,-144
900620,-119
900628,-77
900636,-14
900644,36
900652,68
900660,77
900668,45
900676,-4
900684,-56
900692,-116
900700,-129
900708,-105
900716,-118
900724,-130
900732,-50
900740,132
900748,249
900756,141
900764,-135
900772,-362
900780,-392
900788,-277
900796,-133
900804,-24
900812,47
900820,101
900828,137
900836,150
900844,150
900852,139
900860,37
900868,-217
900876,-557
900884,-672
900892,-205
900900,627
900908,1026
900916,485
900924,-632
900932,-1381
900940,-1325
900948,-899
900956,-627
900964,-548
900972,-443
900980,-260
900988,-39
900996,143
901004,182
901012,105
901020,31
901028,35
901036,97
901044,114
901052,72
901060,44
901068,40
901076,55
901084,68
901092,84
901100,107
901108,133
901116,163
901124,182
901132,190
901140,200
901148,184
901156,114
901164,6
901172,-106
901180,-173
901188,-191
901196,-184
901204,-135
901212,-2
901220,173
901228,290
901236,277
901244,160
901252,80
901260,66
901268,19
901276,-119
901284,-304
901292,-438
901300,-495
901308,-497
901316,-460
901324,-398
901332,-399
901340,-552
901348,-709
901356,-620
901364,-262
901372,117
901380,209
901388,33
901396,-83
901404,99
901412,444
901420,684
901428,734
901436,652
901444,542
901452,424
901460,255
901468,123
901476,121
901484,170
901492,79
901500,-146
901508,-91
901516,491
901524,997
901532,593
901540,-650
901548,-1701
901556,-1811
901564,-1235
901572,-698
901580,-470
901588,-299
901596,-65
901604,190
901612,482
901620,701
901628,725
901636,571
901644,307
901652,128
901660,169
901668,229
901676,96
901684,-104
901692,-151
901700,-8
901708,146
901716,141
901724,102
901732,187
901740,220
901748,91
901756,-31
901764,-33
901772,-17
901780,-116
901788,-319
901796,-423
901804,-370
901812,-392
901820,-653
901828,-1030
901836,-1225
901844,-1109
901852,-907
901860,-892
901868,-982
901876,-851
901884,-410
901892,118
901900,479
901908,484
901916,149
901924,-255
901932,-389
901940,-193
901948,28
901956,69
901964,82
901972,264
901980,550
901988,718
901996,717
902004,645
902012,521
902020,354
902028,209
902036,168
902044,216
902052,263
902060,251
902068,194
902076,138
902084,121
902092,109
902100,67
902108,-3
902116,-18
902124,33
902132,-13
902140,-188
902148,-80
902156,578
902164,1224
902172,974
902180,-221
902188,-1366
902196,-1632
902204,-1175
902212,-663
902220,-420
902228,-333
902236,-226
902244,-71
902252,83
902260,164
902268,125
902276,1
902284,-129
902292,-300
902300,-526
902308,-569
902316,-205
902324,403
902332,872
902340,999
902348,887
902356,841
902364,922
902372,803
902380,408
902388,62
902396,-12
902404,47
902412,-75
902420,-381
902428,-580
902436,-520
902444,-409
902452,-408
902460,-418
902468,-388
902476,-335
902484,-232
902492,-93
902500,23
902508,61
902516,12
902524,-79
902532,-155
902540,-206
902548,-212
902556,-193
902564,-171
902572,-180
902580,-207
902588,-229
902596,-204
902604,-172
902612,-160
902620,-172
902628,-177
902636,-161
902644,-121
902652,-82
902660,-61
902668,-77
902676,-116
902684,-149
902692,-137
902700,-92
902708,-32
902716,17
902724,43
902732,52
902740,-59
902748,-335
902756,-551
902764,-482
902772,-136
902780,257
902788,302
902796,-53
902804,-304
902812,60
902820,999
902828,1784
902836,1630
902844,589
902852,-508
902860,-1026
902868,-1022
902876,-812
902884,-655
902892,-616
902900,-588
902908,-573
902916,-560
902924,-493
902932,-409
902940,-327
902948,-221
902956,-91
902964,5
902972,50
902980,70
902988,95
902996,127
903004,103
903012,11
903020,-62
903028,-57
903036,-7
903044,33
903052,36
903060,33
903068,51
903076,50
903084,-18
903092,-115
903100,-177
903108,-174
903116,-123
903124,-84
903132,-79
903140,-102
903148,-119
903156,-112
903164,-57
903172,13
903180,51
903188,47
903196,53
903204,87
903212,62
903220,-82
903228,-252
903236,-264
903244,-84
903252,37
903260,-114
903268,-380
903276,-368
903284,-42
903292,231
903300,158
903308,-99
903316,-130
903324,206
903332,620
903340,752
903348,539
903356,237
903364,87
903372,100
903380,105
903388,-23
903396,-212
903404,-371
903412,-520
903420,-680
903428,-594
903436,47
903444,926
903452,1206
903460,469
903468,-690
903476,-1351
903484,-1263
903492,-876
903500,-605
903508,-447
903516,-285
903524,-165
903532,-100
903540,-50
903548,-22
903556,-13
903564,-8
903572,0
903580,-9
903588,-49
903596,-92
903604,-119
903612,-113
903620,-66
903628,8
903636,83
903644,141
903652,171
903660,215
903668,274
903676,313
903684,292
903692,269
903700,284
903708,284
903716,173
903724,-34
903732,-212
903740,-253
903748,-216
903756,-202
903764,-213
903772,-187
903780,-143
903788,-148
903796,-190
903804,-197
903812,-141
903820,-41
903828,53
903836,83
903844,38
903852,-47
903860,-99
903868,-83
903876,-40
903884,-21
903892,6
903900,51
903908,56
903916,-4
903924,-72
903932,-63
903940,6
903948,66
903956,53
903964,-5
903972,-63
903980,-116
903988,-168
903996,-204
904004,-220
904012,-202
904020,-139
904028,-74
904036,-55
904044,-105
904052,-233
904060,-421
904068,-370
904076,272
904084,1186
904092,1450
904100,615
904108,-664
904116,-1352
904124,-1224
904132,-822
904140,-570
904148,-429
904156,-276
904164,-183
904172,-152
904180,-126
904188,-83
904196,-21
904204,52
904212,107
904220,151
904228,184
904236,192
904244,178
904252,138
904260,69
904268,-21
904276,-114
904284,-162
904292,-114
904300,38
904308,238
904316,430
904324,554
904332,558
904340,445
904348,261
904356,138
904364,174
904372,293
904380,304
904388,148
904396,-34
904404,-102
904412,-63
904420,-27
904428,-45
904436,-83
904444,-122
904452,-142
904460,-130
904468,-96
904476,-59
904484,-41
904492,-45
904500,-74
904508,-110
904516,-100
904524,-77
904532,-117
904540,-229
904548,-315
904556,-300
904564,-222
904572,-155
904580,-125
904588,-106
904596,-110
904604,-160
904612,-223
904620,-247
904628,-247
904636,-241
904644,-217
904652,-161
904660,-102
904668,-30
904676,27
904684,8
904692,-113
904700,-51
904708,553
904716,1387
904724,1569
904732,732
904740,-478
904748,-1125
904756,-1033
904764,-700
904772,-515
904780,-422
904788,-312
904796,-228
904804,-158
904812,-96
904820,-82
904828,-102
904836,-119
904844,-107
904852,-77
904860,-63
904868,-72
904876,-91
904884,-133
904892,-145
904900,-95
904908,-20
904916,8
904924,22
904932,71
904940,123
904948,114
904956,62
904964,27
904972,37
904980,18
904988,-73
904996,-171
905004,-211
905012,-236
905020,-269
905028,-272
905036,-220
905044,-177
905052,-200
905060,-251
905068,-264
905076,-243
905084,-243
905092,-269
905100,-244
905108,-183
905116,-163
905124,-178
905132,-174
905140,-126
905148,-75
905156,-73
905164,-126
905172,-181
905180,-178
905188,-130
905196,-90
905204,-90
905212,-96
905220,-77
905228,-44
905236,-28
905244,-40
905252,-80
905260,-108
905268,-98
905276,-70
905284,-84
905292,-145
905300,-178
905308,-124
905316,-44
905324,-4
905332,14
905340,57
905348,46
905356,-82
905364,-92
905372,462
905380,1353
905388,1657
905396,838
905404,-467
905412,-1189
905420,-1034
905428,-565
905436,-301
905444,-218
905452,-123
905460,-47
905468,-10
905476,37
905484,80
905492,98
905500,81
905508,38
905516,-5
905524,-26
905532,1
905540,27
905548,10
905556,-13
905564,-12
905572,-68
905580,-234
905588,-377
905596,-271
905604,77
905612,362
905620,334
905628,135
905636,7
905644,-31
905652,-72
905660,-169
905668,-204
905676,-79
905684,76
905692,80
905700,-85
905708,-258
905716,-316
905724,-269
905732,-239
905740,-299
905748,-367
905756,-362
905764,-258
905772,-109
905780,-24
905788,36
905796,129
905804,192
905812,148
905820,83
905828,124
905836,225
905844,355
905852,538
905860,641
905868,446
905876,-16
905884,-316
905892,-183
905900,89
905908,88
905916,-154
905924,-287
905932,-210
905940,-72
905948,13
905956,-15
905964,-115
905972,-84
905980,374
905988,1013
905996,1069
906004,274
906012,-679
906020,-1018
906028,-784
906036,-519
906044,-420
906052,-286
906060,-62
906068,24
906076,-27
906084,-36
906092,-29
906100,-79
906108,-139
906116,-161
906124,-148
906132,-135
906140,-69
906148,1
906156,-46
906164,-230
906172,-400
906180,-354
906188,-75
906196,143
906204,79
906212,-94
906220,-118
906228,-51
906236,-132
906244,-369
906252,-507
906260,-378
906268,-196
906276,-213
906284,-294
906292,-266
906300,-247
906308,-369
906316,-522
906324,-503
906332,-329
906340,-241
906348,-386
906356,-577
906364,-578
906372,-405
906380,-229
906388,-170
906396,-203
906404,-241
906412,-286
906420,-288
906428,-179
906436,49
906444,261
906452,321
906460,217
906468,95
906476,72
906484,101
906492,101
906500,130
906508,220
906516,273
906524,122
906532,-3
906540,412
906548,1203
906556,1469
906564,754
906572,-340
906580,-903
906588,-767
906596,-413
906604,-186
906612,-51
906620,22
906628,-39
906636,-143
906644,-198
906652,-193
906660,-71
906668,146
906676,291
906684,242
906692,54
906700,-86
906708,-105
906716,-78
906724,-103
906732,-171
906740,-233
906748,-282
906756,-304
906764,-245
906772,-129
906780,-75
906788,-175
906796,-380
906804,-544
906812,-558
906820,-434
906828,-334
906836,-400
906844,-534
906852,-506
906860,-253
906868,5
906876,54
906884,8
906892,93
906900,311
906908,498
906916,546
906924,494
906932,383
906940,269
906948,215
906956,209
906964,181
906972,66
906980,-107
906988,-244
906996,-283
907004,-240
907012,-161
907020,-92
907028,-47
907036,8
907044,74
907052,72
907060,-86
907068,-227
907076,125
907084,980
907092,1520
907100,1015
907108,-192
907116,-1028
907124,-1009
907132,-610
907140,-442
907148,-520
907156,-496
907164,-323
907172,-166
907180,-83
907188,-58
907196,-53
907204,-57
907212,-86
907220,-69
907228,14
907236,42
907244,-100
907252,-276
907260,-319
907268,-264
907276,-261
907284,-331
907292,-339
907300,-211
907308,-99
907316,-119
907324,-216
907332,-295
907340,-313
907348,-311
907356,-278
907364,-180
907372,-54
907380,47
907388,138
907396,230
907404,269
907412,233
907420,175
907428,133
907436,92
907444,9
907452,-87
907460,-110
907468,-92
907476,-110
907484,-144
907492,-153
907500,-133
907508,-107
907516,-89
907524,-71
907532,-72
907540,-63
907548,-27
907556,2
907564,31
907572,110
907580,173
907588,74
907596,-125
907604,78
907612,959
907620,1791
907628,1492
907636,85
907644,-1198
907652,-1421
907660,-931
907668,-616
907676,-692
907684,-695
907692,-486
907700,-368
907708,-457
907716,-572
907724,-528
907732,-412
907740,-451
907748,-648
907756,-791
907764,-711
907772,-440
907780,-79
907788,237
907796,387
907804,368
907812,230
907820,80
907828,25
907836,90
907844,207
907852,264
907860,218
907868,151
907876,147
907884,185
907892,161
907900,36
907908,-100
907916,-179
907924,-190
907932,-166
907940,-126
907948,-74
907956,-5
907964,62
907972,95
907980,90
907988,87
907996,109
908004,171
908012,241
908020,275
908028,231
908036,138
908044,61
908052,46
908060,99
908068,171
908076,99
908084,-148
908092,-333
908100,-225
908108,50
908116,201
908124,346
908132,874
908140,1516
908148,1443
908156,409
908164,-763
908172,-1218
908180,-1008
908188,-705
908196,-625
908204,-629
908212,-599
908220,-574
908228,-523
908236,-429
908244,-270
908252,-33
908260,164
908268,175
908276,27
908284,-91
908292,-75
908300,-10
908308,29
908316,67
908324,172
908332,272
908340,263
908348,166
908356,77
908364,47
908372,52
908380,38
908388,18
908396,-2
908404,-5
908412,15
908420,56
908428,88
908436,70
908444,16
908452,-11
908460,37
908468,94
908476,87
908484,26
908492,-21
908500,-27
908508,-9
908516,8
908524,18
908532,53
908540,112
908548,164
908556,186
908564,161
908572,79
908580,-24
908588,-122
908596,-212
908604,-270
908612,-273
908620,-243
908628,-310
908636,-562
908644,-864
908652,-762
908660,52
908668,1013
908676,1130
908684,161
908692,-1102
908700,-1640
908708,-1302
908716,-697
908724,-297
908732,-32
908740,261
908748,534
908756,698
908764,718
908772,625
908780,549
908788,540
908796,558
908804,511
908812,357
908820,159
908828,-27
908836,-176
908844,-267
908852,-320
908860,-364
908868,-377
908876,-279
908884,-66
908892,170
908900,304
908908,281
908916,140
908924,-22
908932,-127
908940,-171
908948,-229
908956,-273
908964,-247
908972,-162
908980,-112
908988,-142
908996,-196
909004,-194
909012,-151
909020,-67
909028,76
909036,316
909044,679
909052,1226
909060,1918
909068,2483
909076,2573
909084,1973
909092,826
909100,-352
909108,-1153
909116,-1562
909124,-1755
909132,-1883
909140,-1925
909148,-1759
909156,-1418
909164,-1144
909172,-1101
909180,-1188
909188,-1206
909196,-1098
909204,-784
909212,-35
909220,1047
909228,1691
909236,1265
909244,173
909252,-580
909260,-587
909268,-280
909276,-145
909284,-144
909292,-91
909300,-29
909308,-17
909316,-12
909324,1
909332,26
909340,61
909348,101
909356,143
909364,162
909372,132
909380,81
909388,57
909396,96
909404,163
909412,202
909420,173
909428,103
909436,69
909444,86
909452,76
909460,-3
909468,-98
909476,-151
909484,-183
909492,-234
909500,-293
909508,-317
909516,-300
909524,-289
909532,-301
909540,-254
909548,-101
909556,59
909564,91
909572,-44
909580,-214
909588,-261
909596,-200
909604,-147
909612,-129
909620,-53
909628,109
909636,253
909644,349
909652,516
909660,798
909668,953
909676,771
909684,444
909692,256
909700,228
909708,185
909716,76
909724,22
909732,51
909740,54
909748,-23
909756,-116
909764,-182
909772,-253
909780,-306
909788,-295
909796,-251
909804,-208
909812,-153
909820,-109
909828,-137
909836,-256
909844,-190
909852,416
909860,1253
909868,1416
909876,531
909884,-694
909892,-1279
909900,-1098
909908,-723
909916,-580
909924,-577
909932,-532
909940,-491
909948,-460
909956,-411
909964,-358
909972,-287
909980,-199
909988,-117
909996,-34
910004,56
910012,112
910020,119
910028,118
910036,159
910044,213
910052,217
910060,168
910068,125
910076,135
910084,171
910092,192
910100,173
910108,103
910116,-7
910124,-109
910132,-172
910140,-207
910148,-232
910156,-268
910164,-311
910172,-322
910180,-292
910188,-260
910196,-237
910204,-161
910212,-28
910220,72
910228,71
910236,11
910244,-20
910252,-31
910260,-63
910268,-130
910276,-172
910284,-149
910292,-138
910300,-204
910308,-267
910316,-249
910324,-208
910332,-264
910340,-385
910348,-421
910356,-304
910364,-169
910372,-124
910380,-118
910388,-87
910396,-59
910404,-65
910412,-103
910420,-148
910428,-177
910436,-181
910444,-185
910452,-236
910460,-250
910468,-124
910476,100
910484,236
910492,188
910500,16
910508,-129
910516,-222
910524,-275
910532,-265
910540,-211
910548,-215
910556,-234
910564,127
910572,1048
910580,1855
910588,1641
910596,465
910604,-654
910612,-950
910620,-619
910628,-271
910636,-138
910644,-77
910652,-43
910660,-49
910668,11
910676,120
910684,133
910692,34
910700,-76
910708,-124
910716,-110
910724,-86
910732,-97
910740,-119
910748,-68
910756,80
910764,270
910772,402
910780,427
910788,367
910796,293
910804,232
910812,139
910820,-9
910828,-164
910836,-242
910844,-205
910852,-134
910860,-80
910868,-52
910876,-40
910884,-60
910892,-118
910900,-164
910908,-185
910916,-196
910924,-178
910932,-147
910940,-110
910948,-77
910956,-42
910964,-1
910972,21
910980,15
910988,-20
910996,-63
911004,-97
911012,-107
911020,-92
911028,-67
911036,-67
911044,-119
911052,-197
911060,-240
911068,-244
911076,-241
911084,-248
911092,-237
911100,-187
911108,-104
911116,-28
911124,41
911132,99
911140,142
911148,163
911156,161
911164,144
911172,116
911180,105
911188,111
911196,110
911204,77
911212,28
911220,-13
911228,-63
911236,-117
911244,-172
911252,-186
911260,-89
911268,70
911276,98
911284,-49
911292,-23
911300,591
911308,1375
911316,1385
911324,348
911332,-882
911340,-1354
911348,-1058
911356,-646
911364,-500
911372,-486
911380,-432
911388,-390
911396,-378
911404,-373
911412,-378
911420,-361
911428,-335
911436,-321
911444,-316
911452,-294
911460,-257
911468,-230
911476,-234
911484,-247
911492,-228
911500,-177
911508,-99
911516,-21
911524,45
911532,99
911540,153
911548,183
911556,178
911564,140
911572,78
911580,5
911588,-55
911596,-93
911604,-108
911612,-119
911620,-130
911628,-131
911636,-111
911644,-88
911652,-98
911660,-121
911668,-137
911676,-126
911684,-86
911692,-65
911700,-102
911708,-177
911716,-218
911724,-166
911732,-66
911740,-2
911748,-5
911756,-31
911764,-62
911772,-101
911780,-127
911788,-127
911796,-112
911804,-86
911812,-52
911820,-34
911828,-38
911836,-17
911844,71
911852,145
911860,116
911868,6
911876,-59
911884,-29
911892,18
911900,12
911908,-23
911916,-40
911924,-46
911932,-55
911940,-59
911948,-47
911956,-13
911964,23
911972,29
911980,2
911988,-59
911996,-96
912004,-55
912012,15
912020,-15
912028,-166
912036,-116
912044,522
912052,1361
912060,1471
912068,517
912076,-722
912084,-1289
912092,-1082
912100,-693
912108,-520
912116,-424
912124,-250
912132,-106
912140,-49
912148,-40
912156,-66
912164,-95
912172,-114
912180,-117
912188,-102
912196,-84
912204,-65
912212,-47
912220,-16
912228,11
912236,21
912244,24
912252,26
912260,36
912268,53
912276,65
912284,45
912292,8
912300,-14
912308,-40
912316,-123
912324,-236
912332,-311
912340,-311
912348,-279
912356,-279
912364,-298
912372,-277
912380,-208
912388,-142
912396,-121
912404,-118
912412,-130
912420,-144
912428,-155
912436,-159
912444,-140
912452,-115
912460,-110
912468,-118
912476,-145
912484,-182
912492,-177
912500,-92
912508,19
912516,79
912524,82
912532,89
912540,122
912548,135
912556,92
912564,31
912572,-11
912580,-23
912588,-35
912596,-62
912604,-83
912612,-81
912620,-71
912628,-89
912636,-131
912644,-115
912652,-3
912660,133
912668,169
912676,127
912684,98
912692,58
912700,-63
912708,-180
912716,-171
912724,-42
912732,64
912740,92
912748,50
912756,-64
912764,-248
912772,-190
912780,486
912788,1344
912796,1415
912804,438
912812,-755
912820,-1192
912828,-850
912836,-389
912844,-201
912852,-151
912860,-79
912868,-52
912876,-59
912884,-47
912892,-44
912900,-69
912908,-111
912916,-124
912924,-88
912932,-23
912940,50
912948,144
912956,231
912964,254
912972,233
912980,214
912988,200
912996,174
913004,146
913012,149
913020,184
913028,188
913036,118
913044,28
913052,-46
913060,-132
913068,-245
913076,-340
913084,-379
913092,-360
913100,-351
913108,-388
913116,-432
913124,-417
913132,-331
913140,-246
913148,-210
913156,-212
913164,-203
913172,-179
913180,-155
913188,-138
913196,-116
913204,-107
913212,-114
913220,-108
913228,-88
913236,-70
913244,-79
913252,-90
913260,-61
913268,-26
913276,-30
913284,-71
913292,-100
913300,-89
913308,-68
913316,-77
913324,-112
913332,-139
913340,-149
913348,-162
913356,-187
913364,-204
913372,-190
913380,-173
913388,-204
913396,-264
913404,-271
913412,-200
913420,-126
913428,-97
913436,-108
913444,-119
913452,-141
913460,-166
913468,-140
913476,-84
913484,-130
913492,-277
913500,-132
913508,627
913516,1482
913524,1477
913532,420
913540,-777
913548,-1201
913556,-909
913564,-552
913572,-443
913580,-381
913588,-221
913596,-73
913604,18
913612,67
913620,74
913628,47
913636,-3
913644,-40
913652,-51
913660,-51
913668,-46
913676,-31
913684,-10
913692,-2
913700,-18
913708,-42
913716,-47
913724,-28
913732,-6
913740,-17
913748,-61
913756,-109
913764,-134
913772,-146
913780,-209
913788,-289
913796,-327
913804,-296
913812,-235
913820,-196
913828,-174
913836,-138
913844,-76
913852,-19
913860,19
913868,53
913876,69
913884,34
913892,-8
913900,29
913908,146
913916,233
913924,205
913932,99
913940,21
913948,0
913956,-14
913964,-42
913972,-69
913980,-88
913988,-90
913996,-72
914004,-48
914012,-39
914020,-25
914028,27
914036,120
914044,207
914052,249
914060,275
914068,311
914076,353
914084,353
914092,268
914100,103
914108,-53
914116,-102
914124,-49
914132,-11
914140,-60
914148,-153
914156,-237
914164,-373
914172,-498
914180,-231
914188,584
914196,1259
914204,977
914212,-139
914220,-1104
914228,-1249
914236,-849
914244,-530
914252,-440
914260,-368
914268,-275
914276,-273
914284,-326
914292,-368
914300,-349
914308,-264
914316,-160
914324,-81
914332,-39
914340,-45
914348,-65
914356,-42
914364,52
914372,166
914380,232
914388,246
914396,218
914404,193
914412,211
914420,227
914428,182
914436,79
914444,-5
914452,16
914460,117
914468,207
914476,213
914484,150
914492,61
914500,-31
914508,-91
914516,-153
914524,-240
914532,-283
914540,-254
914548,-178
914556,-89
914564,-5
914572,93
914580,223
914588,379
914596,520
914604,582
914612,504
914620,314
914628,110
914636,-19
914644,-76
914652,-108
914660,-153
914668,-213
914676,-271
914684,-309
914692,-316
914700,-291
914708,-269
914716,-268
914724,-295
914732,-333
914740,-361
914748,-341
914756,-281
914764,-222
914772,-215
914780,-249
914788,-265
914796,-233
914804,-202
914812,-189
914820,-153
914828,-100
914836,-97
914844,-149
914852,49
914860,692
914868,1269
914876,1045
914884,59
914892,-807
914900,-930
914908,-614
914916,-448
914924,-506
914932,-448
914940,-231
914948,-69
914956,-31
914964,-25
914972,11
914980,105
914988,226
914996,317
915004,330
915012,294
915020,285
915028,342
915036,405
915044,422
915052,409
915060,414
915068,413
915076,361
915084,287
915092,277
915100,334
915108,346
915116,225
915124,-5
915132,-249
915140,-433
915148,-556
915156,-612
915164,-609
915172,-583
915180,-551
915188,-519
915196,-503
915204,-495
915212,-451
915220,-357
915228,-258
915236,-203
915244,-191
915252,-187
915260,-174
915268,-184
915276,-223
915284,-268
915292,-296
915300,-301
915308,-275
915316,-220
915324,-153
915332,-84
915340,-20
915348,-19
915356,-63
915364,-67
915372,-9
915380,35
915388,23
915396,20
915404,73
915412,125
915420,50
915428,-96
915436,-169
915444,-157
915452,-85
915460,-26
915468,-107
915476,-398
915484,-670
915492,-399
915500,522
915508,1318
915516,1104
915524,35
915532,-874
915540,-994
915548,-636
915556,-385
915564,-375
915572,-348
915580,-257
915588,-221
915596,-229
915604,-202
915612,-126
915620,-32
915628,56
915636,119
915644,140
915652,143
915660,153
915668,192
915676,240
915684,223
915692,103
915700,14
915708,69
915716,212
915724,241
915732,72
915740,-122
915748,-142
915756,-53
915764,-52
915772,-196
915780,-342
915788,-377
915796,-316
915804,-248
915812,-206
915820,-161
915828,-107
915836,-55
915844,-16
915852,5
915860,-3
915868,-36
915876,-85
915884,-106
915892,-82
915900,-37
915908,-13
915916,-17
915924,-21
915932,-12
915940,-1
915948,12
915956,37
915964,51
915972,36
915980,-19
915988,-58
915996,-37
916004,23
916012,66
916020,109
916028,180
916036,200
916044,47
916052,-140
916060,78
916068,822
916076,1359
916084,917
916092,-322
916100,-1345
916108,-1482
916116,-1011
916124,-581
916132,-415
916140,-323
916148,-178
916156,-34
916164,54
916172,61
916180,28
916188,62
916196,193
916204,335
916212,418
916220,456
916228,504
916236,572
916244,602
916252,547
916260,437
916268,353
916276,311
916284,256
916292,169
916300,47
916308,-99
916316,-216
916324,-274
916332,-306
916340,-359
916348,-445
916356,-538
916364,-583
916372,-578
916380,-577
916388,-575
916396,-535
916404,-443
916412,-350
916420,-293
916428,-281
916436,-287
916444,-289
916452,-291
916460,-300
916468,-299
916476,-284
916484,-231
916492,-147
916500,-35
916508,69
916516,135
916524,151
916532,133
916540,108
916548,85
916556,57
916564,54
916572,82
916580,123
916588,116
916596,54
916604,-9
916612,-63
916620,-200
916628,-416
916636,-334
916644,360
916652,1138
916660,1072
916668,6
916676,-1173
916684,-1577
916692,-1288
916700,-911
916708,-707
916716,-487
916724,-184
916732,47
916740,138
916748,85
916756,-67
916764,-189
916772,-199
916780,-118
916788,-42
916796,-31
916804,-36
916812,4
916820,78
916828,180
916836,313
916844,437
916852,497
916860,499
916868,545
916876,684
916884,858
916892,926
916900,823
916908,603
916916,350
916924,137
916932,25
916940,2
916948,-1
916956,-71
916964,-204
916972,-299
916980,-299
916988,-254
916996,-250
917004,-269
917012,-267
917020,-230
917028,-178
917036,-134
917044,-109
917052,-100
917060,-109
917068,-127
917076,-138
917084,-141
917092,-153
917100,-178
917108,-212
917116,-238
917124,-243
917132,-254
917140,-284
917148,-305
917156,-295
917164,-271
917172,-258
917180,-236
917188,-186
917196,-95
917204,13
917212,77
917220,106
917228,103
917236,31
917244,-150
917252,-206
917260,216
917268,874
917276,990
917284,234
917292,-758
917300,-1107
917308,-746
917316,-296
917324,-185
917332,-182
917340,-34
917348,76
917356,-4
917364,-163
917372,-222
917380,-101
917388,112
917396,287
917404,382
917412,396
917420,326
917428,202
917436,120
917444,77
917452,38
917460,1
917468,-21
917476,-40
917484,-77
917492,-132
917500,-168
917508,-162
917516,-140
917524,-152
917532,-207
917540,-266
917548,-288
917556,-268
917564,-231
917572,-193
917580,-195
917588,-242
917596,-290
917604,-313
917612,-321
917620,-333
917628,-364
917636,-400
917644,-419
917652,-441
917660,-466
917668,-455
917676,-401
917684,-337
917692,-280
917700,-213
917708,-154
917716,-136
917724,-186
917732,-238
917740,-207
917748,-121
917756,-53
917764,-5
917772,22
917780,18
917788,4
917796,20
917804,70
917812,119
917820,133
917828,121
917836,107
917844,73
917852,19
917860,-4
917868,47
917876,138
917884,154
917892,-24
917900,-263
917908,-34
917916,833
917924,1586
917932,1333
917940,172
917948,-914
917956,-1206
917964,-941
917972,-674
917980,-527
917988,-362
917996,-218
918004,-179
918012,-182
918020,-164
918028,-115
918036,-84
918044,-90
918052,-105
918060,-120
918068,-162
918076,-235
918084,-314
918092,-377
918100,-394
918108,-327
918116,-143
918124,97
918132,266
918140,318
918148,292
918156,242
918164,226
918172,222
918180,146
918188,-15
918196,-190
918204,-276
918212,-259
918220,-264
918228,-360
918236,-442
918244,-425
918252,-334
918260,-252
918268,-201
918276,-158
918284,-123
918292,-117
918300,-116
918308,-85
918316,-39
918324,-20
918332,-36
918340,-62
918348,-83
918356,-108
918364,-119
918372,-94
918380,-47
918388,-8
918396,30
918404,116
918412,257
918420,384
918428,415
918436,360
918444,278
918452,191
918460,115
918468,52
918476,-59
918484,-240
918492,-201
918500,448
918508,1390
918516,1697
918524,956
918532,-155
918540,-679
918548,-482
918556,-123
918564,13
918572,5
918580,-15
918588,-61
918596,-72
918604,-53
918612,-109
918620,-256
918628,-372
918636,-350
918644,-240
918652,-158
918660,-117
918668,-49
918676,57
918684,161
918692,252
918700,351
918708,450
918716,507
918724,510
918732,470
918740,387
918748,265
918756,114
918764,-35
918772,-176
918780,-300
918788,-385
918796,-420
918804,-430
918812,-432
918820,-411
918828,-365
918836,-324
918844,-318
918852,-332
918860,-326
918868,-297
918876,-268
918884,-238
918892,-209
918900,-197
918908,-201
918916,-198
918924,-187
918932,-182
918940,-201
918948,-219
918956,-216
918964,-172
918972,-105
918980,-39
918988,-10
918996,-12
919004,-17
919012,-4
919020,18
919028,34
919036,40
919044,33
919052,0
919060,-35
919068,-55
919076,-51
919084,-15
919092,7
919100,-84
919108,-247
919116,-65
919124,738
919132,1538
919140,1393
919148,264
919156,-863
919164,-1150
919172,-773
919180,-401
919188,-286
919196,-206
919204,-100
919212,-80
919220,-110
919228,-112
919236,-44
919244,62
919252,100
919260,48
919268,0
919276,-20
919284,-37
919292,-48
919300,-44
919308,-34
919316,-37
919324,-49
919332,-33
919340,12
919348,59
919356,89
919364,104
919372,103
919380,111
919388,141
919396,143
919404,75
919412,-49
919420,-165
919428,-242
919436,-301
919444,-351
919452,-370
919460,-347
919468,-311
919476,-301
919484,-318
919492,-344
919500,-346
919508,-334
919516,-323
919524,-303
919532,-255
919540,-199
919548,-178
919556,-180
919564,-172
919572,-165
919580,-175
919588,-146
919596,-36
919604,104
919612,163
919620,120
919628,72
919636,84
919644,128
919652,144
919660,134
919668,120
919676,104
919684,94
919692,76
919700,45
919708,38
919716,62
919724,70
919732,50
919740,35
919748,2
919756,-119
919764,-228
919772,107
919780,959
919788,1580
919796,1185
919804,-1
919812,-958
919820,-1076
919828,-694
919836,-382
919844,-280
919852,-215
919860,-104
919868,32
919876,103
919884,21
919892,-125
919900,-143
919908,-1
919916,137
919924,72
919932,-130
919940,-232
919948,-159
919956,-10
919964,103
919972,119
919980,89
919988,101
919996,125
920004,121
920012,91
920020,50
920028,1
920036,-55
920044,-139
920052,-227
920060,-278
920068,-234
920076,-135
920084,-63
920092,-65
920100,-130
920108,-200
920116,-235
920124,-233
920132,-221
920140,-224
920148,-253
920156,-290
920164,-313
920172,-316
920180,-305
920188,-286
920196,-259
920204,-236
920212,-210
920220,-192
920228,-195
920236,-187
920244,-145
920252,-70
920260,-22
920268,-36
920276,-92
920284,-155
920292,-209
920300,-236
920308,-245
920316,-231
920324,-217
920332,-217
920340,-215
920348,-177
920356,-91
920364,11
920372,99
920380,149
920388,128
920396,13
920404,-150
920412,-76
920420,587
920428,1543
920436,1841
920444,1004
920452,-289
920460,-952
920468,-751
920476,-336
920484,-214
920492,-243
920500,-157
920508,-42
920516,-16
920524,-19
920532,5
920540,43
920548,66
920556,70
920564,68
920572,64
920580,51
920588,28
920596,15
920604,5
920612,-20
920620,-32
920628,-32
920636,-39
920644,-53
920652,-45
920660,-27
920668,-41
920676,-68
920684,-26
920692,88
920700,101
920708,-81
920716,-291
920724,-298
920732,-134
920740,-14
920748,13
920756,41
920764,-2
920772,-172
920780,-275
920788,-142
920796,117
920804,217
920812,102
920820,-28
920828,-8
920836,76
920844,85
920852,41
920860,-31
920868,-94
920876,-110
920884,-101
920892,-82
920900,-72
920908,-80
920916,-110
920924,-164
920932,-245
920940,-350
920948,-440
920956,-468
920964,-450
920972,-428
920980,-397
920988,-330
920996,-273
921004,-320
921012,-328
921020,126
921028,958
921036,1375
921044,777
921052,-382
921060,-1105
921068,-998
921076,-545
921084,-282
921092,-212
921100,-126
921108,-80
921116,-114
921124,-138
921132,-88
921140,11
921148,96
921156,129
921164,140
921172,127
921180,63
921188,2
921196,4
921204,60
921212,119
921220,152
921228,158
921236,102
921244,-30
921252,-149
921260,-172
921268,-99
921276,-49
921284,-78
921292,-140
921300,-181
921308,-173
921316,-140
921324,-101
921332,-51
921340,14
921348,90
921356,172
921364,225
921372,248
921380,225
921388,156
921396,48
921404,-28
921412,-14
921420,75
921428,142
921436,121
921444,29
921452,-38
921460,-60
921468,-57
921476,-76
921484,-123
921492,-165
921500,-197
921508,-225
921516,-236
921524,-227
921532,-218
921540,-239
921548,-280
921556,-287
921564,-246
921572,-213
921580,-233
921588,-298
921596,-323
921604,-246
921612,-121
921620,-27
921628,-9
921636,-69
921644,-203
921652,-233
921660,221
921668,1121
921676,1643
921684,1098
921692,-155
921700,-1044
921708,-1047
921716,-600
921724,-311
921732,-273
921740,-267
921748,-245
921756,-233
921764,-190
921772,-143
921780,-128
921788,-157
921796,-201
921804,-213
921812,-188
921820,-204
921828,-257
921836,-250
921844,-165
921852,-92
921860,-92
921868,-121
921876,-81
921884,39
921892,164
921900,250
921908,321
921916,365
921924,323
921932,200
921940,8
921948,-176
921956,-233
921964,-158
921972,-51
921980,4
921988,-25
921996,-96
922004,-139
922012,-147
922020,-173
922028,-232
922036,-295
922044,-320
922052,-300
922060,-282
922068,-284
922076,-245
922084,-149
922092,-66
922100,-70
922108,-136
922116,-182
922124,-165
922132,-102
922140,-42
922148,-15
922156,-3
922164,30
922172,85
922180,88
922188,65
922196,88
922204,119
922212,19
922220,-153
922228,70
922236,914
922244,1649
922252,1359
922260,143
922268,-930
922276,-1140
922284,-749
922292,-380
922300,-249
922308,-195
922316,-146
922324,-133
922332,-117
922340,-90
922348,-63
922356,-38
922364,-34
922372,-51
922380,-77
922388,-68
922396,-16
922404,14
922412,-25
922420,-78
922428,-88
922436,-61
922444,-62
922452,-124
922460,-205
922468,-255
922476,-284
922484,-315
922492,-319
922500,-274
922508,-207
922516,-153
922524,-142
922532,-154
922540,-144
922548,-103
922556,-63
922564,-34
922572,11
922580,117
922588,245
922596,313
922604,271
922612,162
922620,43
922628,-72
922636,-167
922644,-210
922652,-213
922660,-186
922668,-144
922676,-76
922684,-11
922692,14
922700,-12
922708,-23
922716,21
922724,93
922732,125
922740,116
922748,91
922756,60
922764,37
922772,25
922780,26
922788,62
922796,118
922804,127
922812,20
922820,-68
922828,276
922836,1096
922844,1635
922852,1149
922860,-75
922868,-1020
922876,-1120
922884,-748
922892,-463
922900,-387
922908,-320
922916,-246
922924,-210
922932,-172
922940,-142
922948,-122
922956,-93
922964,-65
922972,-40
922980,-15
922988,11
922996,24
923004,39
923012,47
923020,48
923028,44
923036,15
923044,-25
923052,-60
923060,-116
923068,-170
923076,-189
923084,-235
923092,-403
923100,-629
923108,-746
923116,-654
923124,-451
923132,-312
923140,-292
923148,-285
923156,-237
923164,-164
923172,-83
923180,-20
923188,9
923196,14
923204,-12
923212,-56
923220,-92
923228,-99
923236,-79
923244,-42
923252,13
923260,66
923268,86
923276,77
923284,51
923292,30
923300,33
923308,65
923316,120
923324,187
923332,240
923340,255
923348,219
923356,170
923364,142
923372,100
923380,-65
923388,-296
923396,-137
923404,647
923412,1399
923420,1196
923428,51
923436,-1024
923444,-1229
923452,-803
923460,-418
923468,-303
923476,-246
923484,-138
923492,-50
923500,2
923508,22
923516,34
923524,62
923532,76
923540,54
923548,-14
923556,-85
923564,-118
923572,-104
923580,-53
923588,14
923596,56
923604,69
923612,84
923620,123
923628,174
923636,210
923644,193
923652,141
923660,64
923668,-36
923676,-169
923684,-292
923692,-338
923700,-306
923708,-230
923716,-156
923724,-96
923732,-21
923740,52
923748,82
923756,76
923764,39
923772,-34
923780,-131
923788,-206
923796,-212
923804,-163
923812,-92
923820,5
923828,141
923836,279
923844,335
923852,279
923860,156
923868,21
923876,-74
923884,-103
923892,-100
923900,-102
923908,-102
923916,-126
923924,-224
923932,-308
923940,-10
923948,768
923956,1369
923964,1040
923972,-91
923980,-1077
923988,-1257
923996,-879
924004,-531
924012,-417
924020,-361
924028,-278
924036,-225
924044,-195
924052,-180
924060,-160
924068,-107
924076,-30
924084,22
924092,24
924100,9
924108,23
924116,53
924124,83
924132,100
924140,97
924148,58
924156,-17
924164,-91
924172,-115
924180,-108
924188,-104
924196,-108
924204,-119
924212,-156
924220,-222
924228,-279
924236,-292
924244,-252
924252,-191
924260,-154
924268,-147
924276,-159
924284,-186
924292,-214
924300,-236
924308,-230
924316,-186
924324,-121
924332,-41
924340,34
924348,100
924356,134
924364,133
924372,116
924380,94
924388,36
924396,-36
924404,-72
924412,-37
924420,22
924428,21
924436,-1
924444,25
924452,47
924460,-114
924468,-354
924476,-127
924484,757
924492,1503
924500,1214
924508,36
924516,-967
924524,-1117
924532,-734
924540,-432
924548,-332
924556,-228
924564,-96
924572,-48
924580,-114
924588,-260
924596,-349
924604,-274
924612,-131
924620,-76
924628,-140
924636,-237
924644,-277
924652,-269
924660,-253
924668,-246
924676,-244
924684,-223
924692,-175
924700,-115
924708,-77
924716,-73
924724,-106
924732,-176
924740,-269
924748,-356
924756,-410
924764,-424
924772,-407
924780,-365
924788,-296
924796,-212
924804,-135
924812,-79
924820,-34
924828,16
924836,55
924844,64
924852,54
924860,57
924868,83
924876,103
924884,115
924892,145
924900,183
924908,193
924916,168
924924,127
924932,93
924940,67
924948,61
924956,67
924964,64
924972,74
924980,93
924988,17
924996,-142
925004,14
925012,758
925020,1494
925028,1334
925036,230
925044,-847
925052,-1093
925060,-721
925068,-389
925076,-317
925084,-299
925092,-253
925100,-245
925108,-259
925116,-278
925124,-295
925132,-296
925140,-290
925148,-276
925156,-252
925164,-209
925172,-143
925180,-64
925188,-4
925196,22
925204,39
925212,67
925220,97
925228,89
925236,78
925244,114
925252,156
925260,112
925268,-5
925276,-101
925284,-143
925292,-164
925300,-168
925308,-109
925316,3
925324,72
925332,45
925340,8
925348,31
925356,59
925364,14
925372,-74
925380,-119
925388,-76
925396,48
925404,180
925412,255
925420,255
925428,217
925436,204
925444,229
925452,262
925460,257
925468,225
925476,184
925484,137
925492,78
925500,34
925508,22
925516,-17
925524,-172
925532,-360
925540,-157
925548,623
925556,1312
925564,1057
925572,-76
925580,-1121
925588,-1352
925596,-988
925604,-631
925612,-484
925620,-383
925628,-268
925636,-190
925644,-127
925652,-75
925660,-46
925668,-7
925676,39
925684,64
925692,53
925700,40
925708,47
925716,45
925724,9
925732,-32
925740,-49
925748,-53
925756,-77
925764,-113
925772,-130
925780,-121
925788,-135
925796,-182
925804,-239
925812,-271
925820,-268
925828,-239
925836,-214
925844,-189
925852,-161
925860,-148
925868,-148
925876,-137
925884,-114
925892,-85
925900,-62
925908,-43
925916,12
925924,52
925932,-7
925940,-159
925948,-272
925956,-250
925964,-148
925972,-76
925980,-51
925988,-22
925996,31
926004,61
926012,31
926020,-22
926028,-33
926036,9
926044,-11
926052,-180
926060,-237
926068,292
926076,1210
926084,1564
926092,812
926100,-412
926108,-1100
926116,-1032
926124,-761
926132,-700
926140,-702
926148,-565
926156,-378
926164,-219
926172,-61
926180,63
926188,119
926196,111
926204,59
926212,5
926220,-30
926228,-49
926236,-53
926244,-18
926252,54
926260,141
926268,208
926276,219
926284,180
926292,140
926300,114
926308,96
926316,58
926324,-2
926332,-82
926340,-180
926348,-270
926356,-302
926364,-258
926372,-174
926380,-103
926388,-60
926396,-41
926404,-70
926412,-111
926420,-121
926428,-106
926436,-83
926444,-88
926452,-108
926460,-124
926468,-149
926476,-197
926484,-250
926492,-270
926500,-241
926508,-193
926516,-174
926524,-191
926532,-184
926540,-142
926548,-104
926556,-83
926564,-59
926572,-63
926580,-171
926588,-280
926596,43
926604,940
926612,1656
926620,1327
926628,76
926636,-1047
926644,-1268
926652,-828
926660,-405
926668,-247
926676,-153
926684,-3
926692,143
926700,227
926708,214
926716,140
926724,98
926732,138
926740,260
926748,398
926756,504
926764,620
926772,806
926780,1023
926788,1143
926796,1068
926804,867
926812,655
926820,445
926828,192
926836,-100
926844,-391
926852,-636
926860,-824
926868,-942
926876,-963
926884,-912
926892,-833
926900,-757
926908,-677
926916,-605
926924,-545
926932,-491
926940,-450
926948,-422
926956,-410
926964,-382
926972,-321
926980,-257
926988,-230
926996,-232
927004,-233
927012,-212
927020,-182
927028,-142
927036,-102
927044,-75
927052,-73
927060,-94
927068,-103
927076,-87
927084,-83
927092,-94
927100,-84
927108,-76
927116,-162
927124,-305
927132,-117
927140,660
927148,1458
927156,1354
927164,264
927172,-866
927180,-1198
927188,-850
927196,-445
927204,-301
927212,-246
927220,-132
927228,-27
927236,35
927244,80
927252,86
927260,20
927268,-126
927276,-265
927284,-276
927292,-115
927300,97
927308,215
927316,210
927324,141
927332,60
927340,8
927348,-23
927356,-39
927364,-35
927372,4
927380,62
927388,110
927396,105
927404,36
927412,-45
927420,-98
927428,-138
927436,-134
927444,-104
927452,-126
927460,-227
927468,-343
927476,-393
927484,-377
927492,-329
927500,-255
927508,-95
927516,109
927524,220
927532,200
927540,137
927548,68
927556,22
927564,-10
927572,-30
927580,-17
927588,27
927596,77
927604,112
927612,119
927620,122
927628,132
927636,148
927644,182
927652,210
927660,147
927668,-44
927676,-65
927684,490
927692,1298
927700,1474
927708,664
927716,-456
927724,-954
927732,-735
927740,-353
927748,-184
927756,-124
927764,-50
927772,-7
927780,5
927788,12
927796,-2
927804,-31
927812,-77
927820,-114
927828,-133
927836,-146
927844,-161
927852,-167
927860,-152
927868,-121
927876,-115
927884,-141
927892,-165
927900,-181
927908,-203
927916,-222
927924,-233
927932,-229
927940,-219
927948,-229
927956,-245
927964,-225
927972,-170
927980,-117
927988,-98
927996,-82
928004,-30
928012,51
928020,112
928028,120
928036,114
928044,116
928052,103
928060,68
928068,42
928076,51
928084,57
928092,-24
928100,-192
928108,-333
928116,-322
928124,-155
928132,35
928140,124
928148,96
928156,27
928164,-8
928172,17
928180,64
928188,102
928196,142
928204,146
928212,75
928220,75
928228,467
928236,1125
928244,1361
928252,730
928260,-338
928268,-1003
928276,-986
928284,-690
928292,-519
928300,-485
928308,-449
928316,-408
928324,-362
928332,-298
928340,-246
928348,-238
928356,-246
928364,-212
928372,-144
928380,-112
928388,-159
928396,-242
928404,-264
928412,-214
928420,-140
928428,-92
928436,-58
928444,-28
928452,-10
928460,-9
928468,10
928476,39
928484,54
928492,7
928500,-94
928508,-214
928516,-299
928524,-334
928532,-341
928540,-343
928548,-316
928556,-257
928564,-168
928572,-99
928580,-43
928588,50
928596,170
928604,223
928612,152
928620,21
928628,-74
928636,-100
928644,-89
928652,-75
928660,-51
928668,-33
928676,-40
928684,-46
928692,-39
928700,-54
928708,-90
928716,-110
928724,-91
928732,-13
928740,73
928748,63
928756,-85
928764,-136
928772,360
928780,1252
928788,1612
928796,814
928804,-568
928812,-1419
928820,-1354
928828,-934
928836,-726
928844,-669
928852,-502
928860,-277
928868,-133
928876,-83
928884,-109
928892,-143
928900,-165
928908,-196
928916,-214
928924,-213
928932,-203
928940,-195
928948,-180
928956,-151
928964,-117
928972,-73
928980,-69
928988,-122
928996,-183
929004,-181
929012,-96
929020,-12
929028,0
929036,-37
929044,-80
929052,-117
929060,-165
929068,-200
929076,-187
929084,-128
929092,-48
929100,17
929108,72
929116,97
929124,66
929132,-6
929140,-44
929148,9
929156,143
929164,242
929172,222
929180,87
929188,-87
929196,-212
929204,-209
929212,-95
929220,28
929228,54
929236,6
929244,-33
929252,-12
929260,33
929268,62
929276,-2
929284,-200
929292,-299
929300,145
929308,968
929316,1305
929324,630
929332,-490
929340,-1059
929348,-818
929356,-326
929364,-78
929372,-20
929380,55
929388,117
929396,157
929404,201
929412,215
929420,194
929428,189
929436,220
929444,249
929452,216
929460,125
929468,44
929476,11
929484,-8
929492,-56
929500,-116
929508,-146
929516,-144
929524,-133
929532,-123
929540,-115
929548,-78
929556,-24
929564,9
929572,-17
929580,-65
929588,-96
929596,-83
929604,-56
929612,-46
929620,-53
929628,-48
929636,-26
929644,-1
929652,8
929660,-9
929668,-42
929676,-79
929684,-118
929692,-140
929700,-145
929708,-142
929716,-120
929724,-62
929732,5
929740,27
929748,-22
929756,-76
929764,-72
929772,3
929780,85
929788,132
929796,160
929804,165
929812,94
929820,-57
929828,38
929836,698
929844,1491
929852,1520
929860,541
929868,-648
929876,-1133
929884,-881
929892,-514
929900,-364
929908,-278
929916,-122
929924,10
929932,68
929940,54
929948,5
929956,-23
929964,-70
929972,-203
929980,-356
929988,-386
929996,-258
930004,-98
930012,-31
930020,-54
930028,-70
930036,-47
930044,-30
930052,-32
930060,-8
930068,32
930076,21
930084,-70
930092,-194
930100,-277
930108,-278
930116,-222
930124,-171
930132,-149
930140,-160
930148,-183
930156,-184
930164,-175
930172,-192
930180,-207
930188,-208
930196,-201
930204,-190
930212,-138
930220,-47
930228,27
930236,42
930244,26
930252,-5
930260,-42
930268,-97
930276,-158
930284,-203
930292,-203
930300,-170
930308,-138
930316,-121
930324,-148
930332,-186
930340,-146
930348,-30
930356,6
930364,-179
930372,-347
930380,55
930388,951
930396,1398
930404,740
930412,-497
930420,-1228
930428,-1103
930436,-647
930444,-403
930452,-356
930460,-299
930468,-247
930476,-211
930484,-157
930492,-132
930500,-141
930508,-136
930516,-88
930524,-40
930532,-31
930540,-39
930548,-12
930556,15
930564,-30
930572,-121
930580,-152
930588,-127
930596,-124
930604,-171
930612,-204
930620,-171
930628,-127
930636,-135
930644,-191
930652,-238
930660,-258
930668,-248
930676,-234
930684,-215
930692,-167
930700,-119
930708,-115
930716,-148
930724,-163
930732,-125
930740,-85
930748,-57
930756,-10
930764,52
930772,32
930780,-80
930788,-182
930796,-181
930804,-108
930812,-31
930820,6
930828,15
930836,-4
930844,-65
930852,-130
930860,-109
930868,-5
930876,46
930884,-40
930892,30
930900,674
930908,1582
930916,1826
930924,974
930932,-271
930940,-929
930948,-832
930956,-511
930964,-337
930972,-231
930980,-86
930988,27
930996,101
931004,146
931012,123
931020,63
931028,44
931036,55
931044,21
931052,-55
931060,-73
931068,26
931076,185
931084,286
931092,304
931100,284
931108,239
931116,147
931124,50
931132,11
931140,29
931148,51
931156,10
931164,-86
931172,-174
931180,-218
931188,-244
931196,-260
931204,-265
931212,-262
931220,-239
931228,-204
931236,-178
931244,-160
931252,-141
931260,-136
931268,-130
931276,-123
931284,-111
931292,-108
931300,-109
931308,-108
931316,-95
931324,-81
931332,-69
931340,-63
931348,-67
931356,-80
931364,-83
931372,-74
931380,-90
931388,-101
931396,-77
931404,-101
931412,-252
931420,-276
931428,301
931436,1320
931444,1789
931452,1046
931460,-341
931468,-1222
931476,-1180
931484,-728
931492,-418
931500,-290
931508,-149
931516,3
931524,108
931532,164
931540,181
931548,182
931556,198
931564,240
931572,282
931580,308
931588,304
931596,267
931604,217
931612,177
931620,149
931628,134
931636,133
931644,137
931652,120
931660,64
931668,-16
931676,-70
931684,-97
931692,-129
931700,-181
931708,-259
931716,-324
931724,-349
931732,-313
931740,-226
931748,-141
931756,-100
931764,-100
931772,-99
931780,-63
931788,-7
931796,37
931804,47
931812,54
931820,73
931828,67
931836,34
931844,13
931852,17
931860,20
931868,-3
931876,-39
931884,-79
931892,-130
931900,-193
931908,-248
931916,-269
931924,-294
931932,-395
931940,-496
931948,-200
931956,668
931964,1446
931972,1257
931980,117
931988,-983
931996,-1264
932004,-930
932012,-634
932020,-570
932028,-516
932036,-389
932044,-289
932052,-238
932060,-224
932068,-239
932076,-261
932084,-278
932092,-282
932100,-269
932108,-269
932116,-285
932124,-296
932132,-275
932140,-217
932148,-166
932156,-131
932164,-85
932172,-34
932180,5
932188,27
932196,51
932204,78
932212,97
932220,78
932228,28
932236,-8
932244,2
932252,46
932260,89
932268,92
932276,55
932284,22
932292,24
932300,42
932308,54
932316,51
932324,52
932332,75
932340,99
932348,94
932356,65
932364,32
932372,13
932380,-16
932388,-80
932396,-166
932404,-201
932412,-152
932420,-73
932428,-11
932436,23
932444,-18
932452,-187
932460,-256
932468,180
932476,975
932484,1312
932492,657
932500,-458
932508,-1058
932516,-899
932524,-513
932532,-356
932540,-374
932548,-364
932556,-369
932564,-428
932572,-484
932580,-475
932588,-398
932596,-267
932604,-147
932612,-76
932620,-38
932628,5
932636,53
932644,96
932652,127
932660,161
932668,171
932676,175
932684,158
932692,84
932700,-45
932708,-122
932716,-55
932724,123
932732,256
932740,264
932748,181
932756,100
932764,48
932772,43
932780,70
932788,62
932796,-12
932804,-120
932812,-199
932820,-226
932828,-204
932836,-148
932844,-81
932852,-40
932860,-23
932868,-8
932876,10
932884,18
932892,6
932900,-38
932908,-80
932916,-89
932924,-59
932932,-16
932940,30
932948,100
932956,197
932964,284
932972,298
932980,243
932988,144
932996,-18
933004,-263
933012,-365
933020,19
933028,767
933036,1155
933044,684
933052,-295
933060,-948
933068,-927
933076,-611
933084,-423
933092,-379
933100,-323
933108,-235
933116,-158
933124,-100
933132,-42
933140,27
933148,64
933156,60
933164,62
933172,112
933180,181
933188,206
933196,170
933204,120
933212,81
933220,27
933228,-34
933236,-78
933244,-114
933252,-142
933260,-148
933268,-122
933276,-92
933284,-88
933292,-115
933300,-156
933308,-205
933316,-235
933324,-241
933332,-222
933340,-208
933348,-210
933356,-223
933364,-228
933372,-204
933380,-159
933388,-124
933396,-116
933404,-132
933412,-139
933420,-148
933428,-167
933436,-186
933444,-192
933452,-181
933460,-165
933468,-194
933476,-263
933484,-313
933492,-316
933500,-210
933508,-20
933516,48
933524,-161
933532,-341
933540,80
933548,980
933556,1408
933564,714
933572,-529
933580,-1213
933588,-1027
933596,-560
933604,-331
933612,-326
933620,-331
933628,-325
933636,-350
933644,-368
933652,-343
933660,-254
933668,-149
933676,-111
933684,-144
933692,-190
933700,-223
933708,-252
933716,-279
933724,-289
933732,-283
933740,-262
933748,-244
933756,-225
933764,-205
933772,-203
933780,-221
933788,-234
933796,-220
933804,-201
933812,-209
933820,-231
933828,-240
933836,-178
933844,-64
933852,18
933860,-11
933868,-111
933876,-179
933884,-166
933892,-136
933900,-187
933908,-315
933916,-423
933924,-407
933932,-260
933940,-72
933948,68
933956,143
933964,179
933972,183
933980,169
933988,179
933996,229
934004,262
934012,213
934020,154
934028,127
934036,38
934044,-189
934052,-199
934060,462
934068,1362
934076,1423
934084,294
934092,-1092
934100,-1605
934108,-1219
934116,-671
934124,-432
934132,-369
934140,-286
934148,-220
934156,-164
934164,-85
934172,-24
934180,-7
934188,-29
934196,-69
934204,-107
934212,-135
934220,-127
934228,-72
934236,-14
934244,14
934252,-12
934260,-55
934268,-86
934276,-139
934284,-266
934292,-440
934300,-566
934308,-590
934316,-539
934324,-471
934332,-409
934340,-347
934348,-319
934356,-354
934364,-409
934372,-409
934380,-386
934388,-393
934396,-404
934404,-388
934412,-334
934420,-244
934428,-104
934436,127
934444,435
934452,755
934460,1031
934468,1180
934476,1139
934484,947
934492,740
934500,573
934508,434
934516,310
934524,182
934532,113
934540,86
934548,-15
934556,-227
934564,-228
934572,398
934580,1333
934588,1583
934596,689
934604,-611
934612,-1234
934620,-994
934628,-514
934636,-247
934644,-116
934652,27
934660,127
934668,185
934676,249
934684,292
934692,286
934700,251
934708,226
934716,220
934724,185
934732,108
934740,43
934748,27
934756,45
934764,71
934772,86
934780,78
934788,69
934796,87
934804,134
934812,189
934820,232
934828,222
934836,164
934844,102
934852,79
934860,83
934868,72
934876,34
934884,0
934892,4
934900,13
934908,-10
934916,-69
934924,-120
934932,-135
934940,-123
934948,-117
934956,-104
934964,-87
934972,-94
934980,-141
934988,-168
934996,-120
935004,-6
935012,77
935020,96
935028,95
935036,124
935044,167
935052,228
935060,255
935068,153
935076,-72
935084,-47
935092,590
935100,1422
935108,1495
935116,528
935124,-674
935132,-1162
935140,-907
935148,-494
935156,-278
935164,-127
935172,66
935180,211
935188,315
935196,393
935204,377
935212,249
935220,82
935228,-61
935236,-143
935244,-195
935252,-234
935260,-278
935268,-338
935276,-404
935284,-438
935292,-426
935300,-410
935308,-416
935316,-403
935324,-353
935332,-274
935340,-209
935348,-177
935356,-174
935364,-197
935372,-242
935380,-262
935388,-255
935396,-236
935404,-234
935412,-225
935420,-181
935428,-118
935436,-89
935444,-100
935452,-123
935460,-124
935468,-126
935476,-135
935484,-138
935492,-135
935500,-134
935508,-129
935516,-118
935524,-91
935532,-59
935540,-60
935548,-71
935556,-50
935564,-15
935572,27
935580,82
935588,11
935596,-225
935604,-351
935612,81
935620,1067
935628,1776
935636,1331
935644,10
935652,-958
935660,-966
935668,-529
935676,-324
935684,-388
935692,-331
935700,-97
935708,-17
935716,-165
935724,-257
935732,-212
935740,-159
935748,-176
935756,-245
935764,-303
935772,-291
935780,-206
935788,-55
935796,130
935804,269
935812,290
935820,256
935828,228
935836,185
935844,136
935852,104
935860,107
935868,136
935876,128
935884,40
935892,-96
935900,-198
935908,-233
935916,-206
935924,-191
935932,-199
935940,-192
935948,-170
935956,-143
935964,-113
935972,-76
935980,-30
935988,3
935996,15
936004,9
936012,-25
936020,-114
936028,-190
936036,-191
936044,-160
936052,-159
936060,-153
936068,-120
936076,-93
936084,-105
936092,-169
936100,-236
936108,-275
936116,-318
936124,-380
936132,-391
936140,-132
936148,448
936156,892
936164,686
936172,-112
936180,-930
936188,-1231
936196,-974
936204,-564
936212,-406
936220,-530
936228,-690
936236,-618
936244,-286
936252,18
936260,111
936268,116
936276,141
936284,178
936292,209
936300,213
936308,197
936316,185
936324,169
936332,149
936340,131
936348,87
936356,56
936364,87
936372,139
936380,153
936388,113
936396,64
936404,90
936412,165
936420,195
936428,177
936436,164
936444,183
936452,214
936460,206
936468,123
936476,-8
936484,-130
936492,-209
936500,-250
936508,-257
936516,-246
936524,-247
936532,-293
936540,-331
936548,-263
936556,-97
936564,43
936572,50
936580,-22
936588,-51
936596,40
936604,163
936612,237
936620,274
936628,271
936636,176
936644,78
936652,312
936660,891
936668,1188
936676,647
936684,-465
936692,-1235
936700,-1087
936708,-451
936716,-69
936724,-161
936732,-460
936740,-694
936748,-777
936756,-766
936764,-653
936772,-368
936780,-33
936788,150
936796,184
936804,186
936812,178
936820,128
936828,31
936836,-30
936844,-1
936852,15
936860,-38
936868,-99
936876,-131
936884,-126
936892,-133
936900,-209
936908,-341
936916,-417
936924,-364
936932,-226
936940,-111
936948,-96
936956,-140
936964,-154
936972,-108
936980,-39
936988,-18
936996,-93
937004,-238
937012,-317
937020,-245
937028,-94
937036,6
937044,5
937052,-43
937060,-61
937068,-51
937076,-48
937084,-51
937092,-18
937100,54
937108,126
937116,185
937124,228
937132,228
937140,122
937148,-2
937156,254
937164,983
937172,1489
937180,1025
937188,-190
937196,-1175
937204,-1341
937212,-1005
937220,-748
937228,-701
937236,-676
937244,-630
937252,-622
937260,-599
937268,-550
937276,-501
937284,-444
937292,-372
937300,-270
937308,-177
937316,-137
937324,-143
937332,-147
937340,-117
937348,-61
937356,-21
937364,2
937372,20
937380,34
937388,42
937396,51
937404,73
937412,110
937420,127
937428,96
937436,30
937444,-23
937452,-39
937460,-24
937468,-1
937476,-8
937484,-32
937492,-23
937500,11
937508,37
937516,51
937524,79
937532,116
937540,127
937548,102
937556,58
937564,1
937572,-70
937580,-140
937588,-162
937596,-149
937604,-133
937612,-94
937620,-6
937628,48
937636,-53
937644,-133
937652,308
937660,1212
937668,1699
937676,1161
937684,82
937692,-618
937700,-743
937708,-781
937716,-919
937724,-899
937732,-587
937740,-222
937748,37
937756,194
937764,169
937772,-39
937780,-212
937788,-163
937796,31
937804,130
937812,95
937820,55
937828,64
937836,131
937844,235
937852,308
937860,370
937868,508
937876,791
937884,1165
937892,1457
937900,1458
937908,1144
937916,703
937924,323
937932,72
937940,-24
937948,-53
937956,-99
937964,-142
937972,-144
937980,-104
937988,-69
937996,-90
938004,-185
938012,-299
938020,-380
938028,-438
938036,-480
938044,-488
938052,-487
938060,-464
938068,-424
938076,-405
938084,-403
938092,-356
938100,-252
938108,-158
938116,-118
938124,-97
938132,-71
938140,-103
938148,-190
938156,5
938164,639
938172,1151
938180,880
938188,-57
938196,-852
938204,-976
938212,-697
938220,-496
938228,-453
938236,-408
938244,-336
938252,-283
938260,-245
938268,-261
938276,-329
938284,-374
938292,-348
938300,-274
938308,-195
938316,-116
938324,-29
938332,41
938340,82
938348,117
938356,156
938364,151
938372,98
938380,64
938388,54
938396,37
938404,-25
938412,-95
938420,-132
938428,-122
938436,-91
938444,-53
938452,2
938460,57
938468,91
938476,114
938484,135
938492,142
938500,129
938508,101
938516,68
938524,17
938532,-42
938540,-74
938548,-54
938556,-11
938564,6
938572,-31
938580,-86
938588,-113
938596,-96
938604,-54
938612,3
938620,50
938628,17
938636,-158
938644,-357
938652,-159
938660,581
938668,1202
938676,914
938684,-162
938692,-1097
938700,-1269
938708,-922
938716,-603
938724,-463
938732,-324
938740,-187
938748,-169
938756,-235
938764,-302
938772,-334
938780,-335
938788,-336
938796,-371
938804,-454
938812,-554
938820,-551
938828,-364
938836,-103
938844,8
938852,-87
938860,-264
938868,-359
938876,-356
938884,-291
938892,-188
938900,-82
938908,-35
938916,-58
938924,-120
938932,-197
938940,-282
938948,-334
938956,-340
938964,-302
938972,-196
938980,-55
938988,32
938996,-18
939004,-166
939012,-245
939020,-191
939028,-78
939036,-16
939044,-6
939052,-11
939060,-17
939068,-15
939076,-37
939084,-91
939092,-136
939100,-118
939108,-105
939116,-201
939124,-397
939132,-347
939140,348
939148,1336
939156,1611
939164,739
939172,-589
939180,-1326
939188,-1218
939196,-798
939204,-542
939212,-420
939220,-282
939228,-167
939236,-101
939244,-52
939252,-28
939260,-29
939268,-31
939276,-29
939284,-19
939292,3
939300,22
939308,29
939316,27
939324,37
939332,72
939340,107
939348,139
939356,174
939364,221
939372,269
939380,312
939388,310
939396,251
939404,169
939412,121
939420,104
939428,118
939436,164
939444,177
939452,160
939460,153
939468,150
939476,118
939484,31
939492,-57
939500,-55
939508,46
939516,130
939524,111
939532,19
939540,-79
939548,-107
939556,-34
939564,34
939572,32
939580,30
939588,41
939596,-51
939604,-276
939612,-278
939620,402
939628,1365
939636,1550
939644,556
939652,-769
939660,-1342
939668,-1032
939676,-534
939684,-374
939692,-419
939700,-365
939708,-227
939716,-118
939724,-58
939732,-9
939740,59
939748,65
939756,-83
939764,-297
939772,-411
939780,-320
939788,-102
939796,73
939804,70
939812,-53
939820,-189
939828,-284
939836,-249
939844,-71
939852,130
939860,190
939868,120
939876,135
939884,344
939892,584
939900,641
939908,532
939916,372
939924,195
939932,28
939940,-106
939948,-210
939956,-292
939964,-339
939972,-352
939980,-364
939988,-402
939996,-426
940004,-394
940012,-349
940020,-326
940028,-309
940036,-265
940044,-188
940052,-103
940060,-71
940068,-184
940076,-379
940084,-248
940092,554
940100,1494
940108,1557
940116,505
940124,-771
940132,-1277
940140,-988
940148,-532
940156,-311
940164,-220
940172,-144
940180,-151
940188,-227
940196,-287
940204,-258
940212,-150
940220,-69
940228,-24
940236,79
940244,246
940252,325
940260,192
940268,-41
940276,-140
940284,-78
940292,-12
940300,34
940308,106
940316,252
940324,479
940332,569
940340,243
940348,-430
940356,-957
940364,-894
940372,-366
940380,135
940388,377
940396,479
940404,540
940412,590
940420,718
940428,874
940436,867
940444,544
940452,-42
940460,-601
940468,-875
940476,-848
940484,-641
940492,-448
940500,-309
940508,-141
940516,21
940524,56
940532,-14
940540,-111
940548,-279
940556,-489
940564,-310
940572,519
940580,1340
940588,1215
940596,105
940604,-1023
940612,-1363
940620,-1084
940628,-781
940636,-662
940644,-545
940652,-386
940660,-291
940668,-246
940676,-183
940684,-92
940692,-33
940700,-30
940708,3
940716,107
940724,229
940732,282
940740,256
940748,241
940756,315
940764,386
940772,330
940780,163
940788,21
940796,3
940804,48
940812,59
940820,11
940828,-62
940836,-117
940844,-120
940852,-74
940860,-77
940868,-140
940876,-181
940884,-149
940892,-97
940900,-65
940908,-1
940916,123
940924,243
940932,256
940940,160
940948,17
940956,-115
940964,-168
940972,-124
940980,-72
940988,-68
940996,-63
941004,-19
941012,7
941020,12
941028,12
941036,-130
941044,-533
941052,-784
941060,-199
941068,971
941076,1513
941084,780
941092,-414
941100,-909
941108,-633
941116,-317
941124,-282
941132,-266
941140,-159
941148,-118
941156,-122
941164,-103
941172,-128
941180,-210
941188,-222
941196,-115
941204,-29
941212,-85
941220,-236
941228,-350
941236,-396
941244,-420
941252,-399
941260,-326
941268,-240
941276,-197
941284,-166
941292,-113
941300,-71
941308,-58
941316,-86
941324,-151
941332,-194
941340,-180
941348,-120
941356,-41
941364,34
941372,103
941380,151
941388,177
941396,196
941404,191
941412,158
941420,98
941428,11
941436,-59
941444,-54
941452,-21
941460,-53
941468,-144
941476,-161
941484,-16
941492,153
941500,116
941508,-82
941516,-174
941524,-103
941532,-47
941540,-184
941548,-294
941556,273
941564,1430
941572,1950
941580,971
941588,-814
941596,-1899
941604,-1696
941612,-962
941620,-537
941628,-362
941636,-153
941644,-60
941652,-145
941660,-224
941668,-210
941676,-109
941684,13
941692,103
941700,163
941708,162
941716,94
941724,21
941732,-32
941740,-65
941748,-40
941756,43
941764,118
941772,156
941780,170
941788,197
941796,227
941804,220
941812,155
941820,70
941828,12
941836,-24
941844,-31
941852,-16
941860,8
941868,26
941876,27
941884,8
941892,-26
941900,-61
941908,-86
941916,-99
941924,-108
941932,-118
941940,-114
941948,-100
941956,-97
941964,-109
941972,-115
941980,-96
941988,-64
941996,-25
942004,30
942012,64
942020,22
942028,-82
942036,-115
942044,-36
942052,27
942060,-40
942068,-163
942076,-250
942084,-391
942092,-523
942100,-223
942108,615
942116,1216
942124,767
942132,-416
942140,-1214
942148,-1028
942156,-297
942164,251
942172,427
942180,425
942188,327
942196,163
942204,21
942212,-44
942220,-64
942228,-72
942236,-101
942244,-138
942252,-153
942260,-171
942268,-222
942276,-276
942284,-276
942292,-218
942300,-135
942308,-58
942316,-5
942324,25
942332,29
942340,15
942348,-32
942356,-103
942364,-181
942372,-247
942380,-293
942388,-325
942396,-348
942404,-368
942412,-393
942420,-404
942428,-350
942436,-238
942444,-133
942452,-68
942460,1
942468,98
942476,206
942484,236
942492,146
942500,71
942508,148
942516,267
942524,224
942532,-15
942540,-266
942548,-320
942556,-150
942564,57
942572,163
942580,157
942588,46
942596,-110
942604,-143
942612,-63
942620,-65
942628,-186
942636,-37
942644,708
942652,1522
942660,1428
942668,269
942676,-986
942684,-1422
942692,-1147
942700,-795
942708,-610
942716,-425
942724,-165
942732,45
942740,146
942748,107
942756,-25
942764,-118
942772,-112
942780,-67
942788,-57
942796,-87
942804,-110
942812,-115
942820,-142
942828,-167
942836,-142
942844,-79
942852,-24
942860,3
942868,7
942876,-2
942884,-15
942892,-36
942900,-66
942908,-101
942916,-133
942924,-147
942932,-123
942940,-77
942948,-40
942956,-37
942964,-46
942972,-39
942980,-21
942988,-36
942996,-82
943004,-111
943012,-104
943020,-71
943028,-38
943036,-18
943044,-16
943052,-16
943060,-4
943068,15
943076,16
943084,-23
943092,-84
943100,-130
943108,-153
943116,-155
943124,-140
943132,-139
943140,-157
943148,-183
943156,-183
943164,-180
943172,-200
943180,-213
943188,-233
943196,-131
943204,374
943212,1090
943220,1280
943228,528
943236,-625
943244,-1238
943252,-1067
943260,-663
943268,-485
943276,-380
943284,-131
943292,157
943300,368
943308,486
943316,501
943324,452
943332,398
943340,378
943348,351
943356,252
943364,117
943372,45
943380,67
943388,108
943396,113
943404,71
943412,19
943420,-36
943428,-94
943436,-155
943444,-207
943452,-250
943460,-288
943468,-323
943476,-337
943484,-327
943492,-288
943500,-240
943508,-199
943516,-160
943524,-123
943532,-106
943540,-125
943548,-161
943556,-175
943564,-154
943572,-102
943580,-32
943588,43
943596,128
943604,203
943612,200
943620,96
943628,7
943636,51
943644,166
943652,193
943660,65
943668,-105
943676,-194
943684,-229
943692,-254
943700,-202
943708,-56
943716,87
943724,112
943732,11
943740,-123
943748,-192
943756,-209
943764,-271
943772,-435
943780,-648
943788,-567
943796,125
943804,1020
943812,1230
943820,457
943828,-578
943836,-970
943844,-632
943852,-165
943860,2
943868,-15
943876,-30
943884,-51
943892,-78
943900,-83
943908,-64
943916,-14
943924,37
943932,45
943940,2
943948,-46
943956,-63
943964,-54
943972,-30
943980,18
943988,79
943996,110
944004,80
944012,23
944020,-7
944028,22
944036,77
944044,102
944052,77
944060,23
944068,-39
944076,-98
944084,-101
944092,-52
944100,-32
944108,-98
944116,-181
944124,-163
944132,-57
944140,21
944148,-6
944156,-81
944164,-116
944172,-145
944180,-199
944188,-268
944196,-277
944204,-193
944212,-69
944220,24
944228,37
944236,-25
944244,-131
944252,-222
944260,-249
944268,-241
944276,-296
944284,-424
944292,-469
944300,-193
944308,334
944316,656
944324,451
944332,-99
944340,-505
944348,-538
944356,-372
944364,-214
944372,-40
944380,392
944388,1484
944396,3625
944404,6506
944412,8467
944420,7639
944428,4025
944436,-234
944444,-2889
944452,-3535
944460,-3248
944468,-2943
944476,-2681
944484,-2310
944492,-1943
944500,-1687
944508,-1527
944516,-1420
944524,-1326
944532,-1219
944540,-1053
944548,-847
944556,-708
944564,-709
944572,-758
944580,-750
944588,-682
944596,-600
944604,-541
944612,-493
944620,-434
944628,-385
944636,-317
944644,-224
944652,-147
944660,-99
944668,-57
944676,-18
944684,6
944692,35
944700,61
944708,74
944716,61
944724,32
944732,40
944740,100
944748,144
944756,131
944764,46
944772,-75
944780,-183
944788,-268
944796,-358
944804,-442
944812,-479
944820,-451
944828,-370
944836,-244
944844,-78
944852,85
944860,208
944868,285
944876,309
944884,245
944892,74
944900,-104
944908,-165
944916,-96
944924,-27
944932,-47
944940,-108
944948,-137
944956,-105
944964,-3
944972,125
944980,175
944988,123
944996,18
945004,-76
945012,-172
945020,-207
945028,141
945036,955
945044,1588
945052,1297
945060,232
945068,-693
945076,-868
945084,-530
945092,-258
945100,-245
945108,-295
945116,-303
945124,-299
945132,-300
945140,-303
945148,-270
945156,-171
945164,-69
945172,-42
945180,-69
945188,-96
945196,-86
945204,-34
945212,35
945220,68
945228,59
945236,45
945244,78
945252,147
945260,209
945268,242
945276,257
945284,239
945292,162
945300,47
945308,-19
945316,-52
945324,-101
945332,-137
945340,-128
945348,-136
945356,-213
945364,-272
945372,-191
945380,13
945388,174
945396,191
945404,157
945412,194
945420,274
945428,307
945436,225
945444,51
945452,-75
945460,-84
945468,-53
945476,-71
945484,-153
945492,-241
945500,-287
945508,-282
945516,-251
945524,-226
945532,-257
945540,-350
945548,-443
945556,-462
945564,-375
945572,-211
945580,-102
945588,-181
945596,-406
945604,-378
945612,293
945620,1227
945628,1447
945636,620
945644,-521
945652,-1046
945660,-874
945668,-580
945676,-497
945684,-450
945692,-313
945700,-221
945708,-219
945716,-222
945724,-191
945732,-143
945740,-106
945748,-82
945756,-94
945764,-139
945772,-161
945780,-110
945788,-12
945796,73
945804,127
945812,157
945820,157
945828,108
945836,45
945844,10
945852,-21
945860,-61
945868,-107
945876,-151
945884,-190
945892,-215
945900,-217
945908,-185
945916,-145
945924,-127
945932,-135
945940,-170
945948,-200
945956,-193
945964,-155
945972,-120
945980,-85
945988,-20
945996,37
946004,22
946012,-33
946020,-14
946028,91
946036,164
946044,106
946052,-7
946060,-26
946068,45
946076,72
946084,-28
946092,-173
946100,-243
946108,-185
946116,-73
946124,12
946132,87
946140,145
946148,90
946156,-69
946164,46
946172,759
946180,1542
946188,1471
946196,403
946204,-770
946212,-1175
946220,-899
946228,-557
946236,-436
946244,-376
946252,-260
946260,-163
946268,-73
946276,21
946284,77
946292,75
946300,38
946308,-14
946316,-46
946324,-58
946332,-46
946340,-30
946348,-17
946356,-19
946364,-33
946372,-52
946380,-45
946388,-1
946396,51
946404,74
946412,39
946420,-20
946428,-80
946436,-140
946444,-198
946452,-252
946460,-310
946468,-358
946476,-349
946484,-255
946492,-85
946500,91
946508,203
946516,246
946524,236
946532,208
946540,219
946548,268
946556,289
946564,225
946572,113
946580,14
946588,-61
946596,-135
946604,-204
946612,-207
946620,-162
946628,-170
946636,-286
946644,-448
946652,-539
946660,-532
946668,-454
946676,-341
946684,-253
946692,-274
946700,-419
946708,-369
946716,242
946724,1090
946732,1273
946740,409
946748,-802
946756,-1379
946764,-1168
946772,-746
946780,-558
946788,-519
946796,-436
946804,-353
946812,-283
946820,-188
946828,-110
946836,-91
946844,-119
946852,-143
946860,-114
946868,-53
946876,-12
946884,10
946892,43
946900,76
946908,78
946916,44
946924,-13
946932,-44
946940,-36
946948,-2
946956,17
946964,-30
946972,-101
946980,-101
946988,8
946996,133
947004,143
947012,78
947020,65
947028,101
947036,77
947044,-48
947052,-160
947060,-170
947068,-97
947076,-13
947084,37
947092,68
947100,97
947108,68
947116,-60
947124,-248
947132,-340
947140,-220
947148,32
947156,193
947164,136
947172,4
947180,-67
947188,-151
947196,-331
947204,-460
947212,-372
947220,-174
947228,-115
947236,24
947244,699
947252,1557
947260,1618
947268,557
947276,-772
947284,-1313
947292,-987
947300,-496
947308,-368
947316,-523
947324,-641
947332,-517
947340,-130
947348,222
947356,285
947364,195
947372,196
947380,301
947388,315
947396,156
947404,-39
947412,-112
947420,-85
947428,-100
947436,-193
947444,-300
947452,-346
947460,-279
947468,-99
947476,97
947484,213
947492,242
947500,212
947508,151
947516,88
947524,61
947532,75
947540,84
947548,48
947556,17
947564,48
947572,105
947580,119
947588,84
947596,53
947604,30
947612,-23
947620,-86
947628,-112
947636,-117
947644,-150
947652,-202
947660,-222
947668,-216
947676,-197
947684,-170
947692,-123
947700,-58
947708,6
947716,60
947724,140
947732,204
947740,137
947748,-68
947756,-58
947764,553
947772,1396
947780,1527
947788,588
947796,-655
947804,-1237
947812,-1081
947820,-756
947828,-596
947836,-512
947844,-447
947852,-489
947860,-547
947868,-467
947876,-317
947884,-234
947892,-179
947900,-75
947908,80
947916,190
947924,173
947932,81
947940,4
947948,-18
947956,43
947964,229
947972,480
947980,629
947988,610
947996,471
948004,327
948012,240
948020,176
948028,131
948036,116
948044,74
948052,3
948060,-58
948068,-64
948076,-35
948084,-24
948092,-62
948100,-132
948108,-187
948116,-217
948124,-238
948132,-239
948140,-205
948148,-148
948156,-96
948164,-75
948172,-56
948180,-13
948188,30
948196,43
948204,20
948212,-7
948220,-26
948228,-55
948236,-93
948244,-104
948252,-104
948260,-193
948268,-385
948276,-306
948284,386
948292,1231
948300,1292
948308,333
948316,-804
948324,-1220
948332,-955
948340,-631
948348,-524
948356,-442
948364,-244
948372,-67
948380,5
948388,1
948396,-54
948404,-148
948412,-243
948420,-239
948428,-124
948436,24
948444,40
948452,-114
948460,-253
948468,-166
948476,114
948484,361
948492,361
948500,133
948508,-104
948516,-187
948524,-147
948532,-96
948540,-107
948548,-208
948556,-367
948564,-500
948572,-545
948580,-505
948588,-426
948596,-331
948604,-217
948612,-101
948620,-17
948628,-14
948636,-71
948644,-95
948652,-60
948660,2
948668,8
948676,-69
948684,-164
948692,-205
948700,-191
948708,-133
948716,-11
948724,118
948732,176
948740,144
948748,84
948756,104
948764,169
948772,122
948780,-54
948788,-15
948796,592
948804,1368
948812,1433
948820,529
948828,-575
948836,-1009
948844,-750
948852,-375
948860,-230
948868,-187
948876,-94
948884,-18
948892,7
948900,-7
948908,-54
948916,-93
948924,-82
948932,-42
948940,-12
948948,-4
948956,14
948964,45
948972,61
948980,19
948988,-53
948996,-102
949004,-125
949012,-141
949020,-155
949028,-162
949036,-148
949044,-123
949052,-134
949060,-185
949068,-224
949076,-204
949084,-172
949092,-241
949100,-470
949108,-722
949116,-788
949124,-611
949132,-328
949140,-94
949148,147
949156,607
949164,1269
949172,1715
949180,1535
949188,825
949196,77
949204,-340
949212,-454
949220,-480
949228,-494
949236,-445
949244,-347
949252,-275
949260,-248
949268,-229
949276,-227
949284,-329
949292,-506
949300,-346
949308,420
949316,1189
949324,1073
949332,37
949340,-996
949348,-1240
949356,-876
949364,-547
949372,-471
949380,-420
949388,-298
949396,-202
949404,-152
949412,-133
949420,-130
949428,-107
949436,-43
949444,51
949452,115
949460,97
949468,-5
949476,-141
949484,-250
949492,-277
949500,-184
949508,-24
949516,52
949524,21
949532,-29
949540,-45
949548,-69
949556,-120
949564,-161
949572,-162
949580,-124
949588,-113
949596,-150
949604,-196
949612,-251
949620,-329
949628,-412
949636,-455
949644,-398
949652,-257
949660,-86
949668,43
949676,104
949684,154
949692,239
949700,351
949708,408
949716,272
949724,-67
949732,-451
949740,-644
949748,-551
949756,-271
949764,35
949772,218
949780,225
949788,46
949796,-157
949804,89
949812,900
949820,1535
949828,1213
949836,123
949844,-748
949852,-799
949860,-383
949868,-113
949876,-104
949884,-116
949892,-89
949900,-82
949908,-99
949916,-147
949924,-152
949932,-80
949940,14
949948,71
949956,96
949964,117
949972,129
949980,97
949988,30
949996,-10
950004,12
950012,45
950020,32
950028,-46
950036,-129
950044,-190
950052,-267
950060,-425
950068,-616
950076,-712
950084,-591
950092,-302
950100,-42
950108,8
950116,-99
950124,-182
950132,-110
950140,38
950148,76
950156,-33
950164,-168
950172,-249
950180,-274
950188,-269
950196,-207
950204,-37
950212,194
950220,367
950228,429
950236,435
950244,453
950252,480
950260,448
950268,326
950276,205
950284,154
950292,84
950300,-152
950308,-385
950316,-89
950324,772
950332,1340
950340,826
950348,-434
950356,-1351
950364,-1404
950372,-1032
950380,-811
950388,-762
950396,-641
950404,-463
950412,-331
950420,-249
950428,-219
950436,-218
950444,-195
950452,-154
950460,-140
950468,-166
950476,-196
950484,-171
950492,-35
950500,157
950508,278
950516,240
950524,114
950532,20
950540,-15
950548,17
950556,120
950564,202
950572,77
950580,-232
950588,-435
950596,-318
950604,-60
950612,35
950620,-45
950628,-68
950636,16
950644,43
950652,-70
950660,-230
950668,-340
950676,-381
950684,-359
950692,-265
950700,-163
950708,-115
950716,-95
950724,-2
950732,153
950740,231
950748,113
950756,-140
950764,-355
950772,-406
950780,-304
950788,-167
950796,-78
950804,-11
950812,7
950820,-132
950828,-371
950836,-254
950844,591
950852,1580
950860,1669
950868,669
950876,-536
950884,-1032
950892,-812
950900,-434
950908,-253
950916,-202
950924,-182
950932,-174
950940,-94
950948,-17
950956,-50
950964,-115
950972,-110
950980,-20
950988,89
950996,116
951004,87
951012,64
951020,81
951028,125
951036,152
951044,146
951052,118
951060,-28
951068,-275
951076,-316
951084,1
951092,328
951100,265
951108,-119
951116,-391
951124,-395
951132,-486
951140,-863
951148,-1163
951156,-1011
951164,-500
951172,-1
951180,329
951188,664
951196,1134
951204,1483
951212,1417
951220,1025
951228,637
951236,419
951244,308
951252,201
951260,89
951268,-9
951276,-119
951284,-253
951292,-390
951300,-489
951308,-490
951316,-403
951324,-314
951332,-246
951340,-165
951348,-91
951356,-129
951364,-207
951372,123
951380,966
951388,1540
951396,1061
951404,-185
951412,-1123
951420,-1157
951428,-688
951436,-337
951444,-226
951452,-140
951460,-71
951468,-96
951476,-172
951484,-250
951492,-309
951500,-326
951508,-296
951516,-218
951524,-118
951532,-46
951540,15
951548,135
951556,310
951564,449
951572,457
951580,378
951588,315
951596,311
951604,313
951612,247
951620,117
951628,-29
951636,-151
951644,-239
951652,-334
951660,-404
951668,-363
951676,-187
951684,35
951692,173
951700,167
951708,71
951716,-18
951724,-73
951732,-128
951740,-194
951748,-248
951756,-252
951764,-219
951772,-212
951780,-233
951788,-234
951796,-216
951804,-214
951812,-211
951820,-163
951828,-113
951836,-96
951844,-80
951852,-72
951860,-86
951868,-100
951876,-63
951884,7
951892,35
951900,-15
951908,-86
951916,-78
951924,-16
951932,35
951940,70
951948,54
951956,-13
951964,-69
951972,-72
951980,-49
951988,-54
951996,-84
952004,-98
952012,-116
952020,-223
952028,-406
952036,-325
952044,345
952052,1195
952060,1344
952068,497
952076,-583
952084,-980
952092,-682
952100,-335
952108,-288
952116,-343
952124,-275
952132,-135
952140,-65
952148,-117
952156,-195
952164,-164
952172,-22
952180,122
952188,154
952196,118
952204,150
952212,268
952220,370
952228,394
952236,343
952244,267
952252,197
952260,114
952268,8
952276,-97
952284,-177
952292,-248
952300,-314
952308,-367
952316,-387
952324,-378
952332,-375
952340,-380
952348,-382
952356,-363
952364,-311
952372,-264
952380,-259
952388,-227
952396,-120
952404,-16
952412,-56
952420,-243
952428,-423
952436,-459
952444,-343
952452,-191
952460,-61
952468,37
952476,65
952484,21
952492,-22
952500,-37
952508,-23
952516,-15
952524,15
952532,80
952540,138
952548,113
952556,12
952564,-86
952572,-143
952580,-166
952588,-148
952596,-103
952604,-66
952612,-71
952620,-97
952628,-121
952636,-120
952644,-96
952652,-68
952660,-49
952668,-84
952676,-240
952684,-491
952692,-471
952700,180
952708,1047
952716,1142
952724,159
952732,-1056
952740,-1469
952748,-1020
952756,-385
952764,-55
952772,30
952780,28
952788,-33
952796,-69
952804,-34
952812,27
952820,68
952828,68
952836,26
952844,-16
952852,-7
952860,50
952868,99
952876,107
952884,100
952892,93
952900,77
952908,35
952916,-7
952924,-6
952932,19
952940,7
952948,-27
952956,-26
952964,27
952972,30
952980,-100
952988,-288
952996,-349
953004,-189
953012,47
953020,132
953028,16
953036,-137
953044,-182
953052,-152
953060,-139
953068,-158
953076,-143
953084,-88
953092,-82
953100,-138
953108,-167
953116,-124
953124,-29
953132,55
953140,101
953148,138
953156,186
953164,220
953172,222
953180,226
953188,258
953196,286
953204,267
953212,199
953220,128
953228,67
953236,38
953244,38
953252,-12
953260,-219
953268,-333
953276,159
953284,1147
953292,1642
953300,974
953308,-259
953316,-960
953324,-844
953332,-491
953340,-324
953348,-212
953356,-24
953364,56
953372,-75
953380,-261
953388,-395
953396,-466
953404,-475
953412,-426
953420,-342
953428,-245
953436,-176
953444,-144
953452,-134
953460,-120
953468,-100
953476,-79
953484,-80
953492,-98
953500,-125
953508,-149
953516,-167
953524,-193
953532,-236
953540,-269
953548,-270
953556,-226
953564,-140
953572,-65
953580,-55
953588,-91
953596,-96
953604,-23
953612,76
953620,111
953628,73
953636,8
953644,-26
