timestamp,sample
599588,38
599596,35
599604,35
599612,36
599620,25
599628,17
599636,6
599644,0
599652,-3
599660,-13
599668,-25
599676,-33
599684,-37
599692,-36
599700,-40
599708,-44
599716,-53
599724,-62
599732,-67
599740,-63
599748,-56
599756,-54
599764,-60
599772,-60
599780,-61
599788,-64
599796,-77
599804,-84
599812,-91
599820,-96
599828,-100
599836,-101
599844,-107
599852,-115
599860,-113
599868,-96
599876,-81
599884,-81
599892,-88
599900,-88
599908,-84
599916,-79
599924,-76
599932,-61
599940,-52
599948,-53
599956,-71
599964,-98
599972,-124
599980,-137
599988,-149
599996,-139
600004,-81
600012,-39
600020,-122
600028,-277
600036,-106
600044,610
600052,1305
600060,1147
600068,127
600076,-882
600084,-1154
600092,-850
600100,-537
600108,-420
600116,-346
600124,-246
600132,-189
600140,-169
600148,-149
600156,-133
600164,-106
600172,-83
600180,-75
600188,-72
600196,-65
600204,-54
600212,-40
600220,-28
600228,-10
600236,15
600244,32
600252,48
600260,56
600268,65
600276,78
600284,91
600292,113
600300,127
600308,130
600316,119
600324,100
600332,78
600340,50
600348,7
600356,-37
600364,-69
600372,-78
600380,-87
600388,-83
600396,-68
600404,-51
600412,-44
600420,-47
600428,-38
600436,-7
600444,22
600452,31
600460,26
600468,29
600476,25
600484,17
600492,7
600500,0
600508,-5
600516,-5
600524,-7
600532,-12
600540,-11
600548,-12
600556,-6
600564,0
600572,3
600580,11
600588,18
600596,17
600604,11
600612,4
600620,2
600628,3
600636,1
600644,-3
600652,-3
600660,0
600668,-2
600676,-8
600684,-19
600692,-27
600700,-35
600708,-35
600716,-37
600724,-43
600732,-50
600740,-62
600748,-68
600756,-72
600764,-74
600772,-72
600780,-80
600788,-93
600796,-102
600804,-103
600812,-92
600820,-81
600828,-76
600836,-86
600844,-104
600852,-109
600860,-119
600868,-114
600876,-80
600884,-71
600892,-174
600900,-296
600908,-31
600916,756
600924,1387
600932,1098
600940,8
600948,-950
600956,-1145
600964,-821
600972,-532
600980,-437
600988,-362
600996,-267
601004,-210
601012,-177
601020,-155
601028,-144
601036,-130
601044,-107
601052,-76
601060,-46
601068,-29
601076,-35
601084,-54
601092,-70
601100,-71
601108,-73
601116,-74
601124,-74
601132,-73
601140,-73
601148,-73
601156,-72
601164,-65
601172,-60
601180,-64
601188,-71
601196,-80
601204,-102
601212,-133
601220,-181
601228,-219
601236,-238
601244,-234
601252,-220
601260,-202
601268,-186
601276,-171
601284,-159
601292,-146
601300,-136
601308,-124
601316,-116
601324,-116
601332,-114
601340,-115
601348,-115
601356,-116
601364,-120
601372,-127
601380,-132
601388,-137
601396,-133
601404,-130
601412,-128
601420,-132
601428,-132
601436,-130
601444,-127
601452,-122
601460,-119
601468,-120
601476,-124
601484,-127
601492,-128
601500,-131
601508,-133
601516,-131
601524,-124
601532,-115
601540,-111
601548,-109
601556,-106
601564,-103
601572,-106
601580,-117
601588,-125
601596,-126
601604,-118
601612,-111
601620,-108
601628,-106
601636,-102
601644,-96
601652,-92
601660,-95
601668,-99
601676,-99
601684,-94
601692,-89
601700,-91
601708,-94
601716,-82
601724,-62
601732,-42
601740,-32
601748,-47
601756,-61
601764,-61
601772,-60
601780,-42
601788,0
601796,6
601804,-117
601812,-219
601820,140
601828,993
601836,1569
601844,1135
601852,-21
601860,-902
601868,-970
601876,-606
601884,-346
601892,-272
601900,-189
601908,-102
601916,-50
601924,-16
601932,15
601940,31
601948,44
601956,51
601964,60
601972,64
601980,66
601988,68
601996,61
602004,54
602012,52
602020,57
602028,60
602036,62
602044,64
602052,75
602060,78
602068,77
602076,76
602084,75
602092,73
602100,67
602108,56
602116,33
602124,0
602132,-40
602140,-80
602148,-105
602156,-111
602164,-103
602172,-78
602180,-61
602188,-50
602196,-39
602204,-26
602212,-14
602220,1
602228,12
602236,17
602244,17
602252,16
602260,16
602268,18
602276,14
602284,4
602292,-2
602300,-7
602308,-11
602316,-17
602324,-23
602332,-24
602340,-21
602348,-18
602356,-19
602364,-22
602372,-30
602380,-34
602388,-35
602396,-33
602404,-33
602412,-33
602420,-34
602428,-35
602436,-36
602444,-40
602452,-41
602460,-42
602468,-47
602476,-49
602484,-46
602492,-45
602500,-47
602508,-50
602516,-53
602524,-47
602532,-41
602540,-39
602548,-41
602556,-41
602564,-46
602572,-48
602580,-48
602588,-42
602596,-38
602604,-38
602612,-45
602620,-50
602628,-48
602636,-46
602644,-42
602652,-44
602660,-51
602668,-57
602676,-60
602684,-61
602692,-49
602700,-33
602708,-24
602716,-35
602724,-55
602732,-64
602740,-76
602748,-69
602756,-31
602764,-18
602772,-112
602780,-231
602788,20
602796,818
602804,1518
602812,1291
602820,172
602828,-891
602836,-1169
602844,-846
602852,-515
602860,-402
602868,-337
602876,-236
602884,-173
602892,-141
602900,-124
602908,-113
602916,-96
602924,-73
602932,-54
602940,-31
602948,-21
602956,-22
602964,-33
602972,-47
602980,-46
602988,-40
602996,-32
603004,-27
603012,-25
603020,-23
603028,-13
603036,2
603044,15
603052,24
603060,24
603068,19
603076,1
603084,-33
603092,-81
603100,-129
603108,-162
603116,-180
603124,-182
603132,-173
603140,-155
603148,-136
603156,-127
603164,-123
603172,-115
603180,-99
603188,-82
603196,-71
603204,-65
603212,-58
603220,-53
603228,-48
603236,-44
603244,-43
603252,-42
603260,-49
603268,-52
603276,-57
603284,-60
603292,-68
603300,-74
603308,-74
603316,-71
603324,-70
603332,-72
603340,-71
603348,-69
603356,-66
603364,-60
603372,-55
603380,-55
603388,-59
603396,-64
603404,-62
603412,-62
603420,-64
603428,-69
603436,-70
603444,-66
603452,-62
603460,-60
603468,-59
603476,-65
603484,-71
603492,-73
603500,-65
603508,-57
603516,-56
603524,-62
603532,-67
603540,-68
603548,-61
603556,-57
603564,-59
603572,-65
603580,-67
603588,-68
603596,-68
603604,-69
603612,-73
603620,-74
603628,-69
603636,-66
603644,-68
603652,-70
603660,-74
603668,-74
603676,-63
603684,-52
603692,-37
603700,-33
603708,-53
603716,-80
603724,-98
603732,-101
603740,-89
603748,-48
603756,-32
603764,-123
603772,-257
603780,-55
603788,702
603796,1448
603804,1313
603812,260
603820,-827
603828,-1162
603836,-879
603844,-550
603852,-431
603860,-368
603868,-263
603876,-202
603884,-175
603892,-154
603900,-138
603908,-121
603916,-100
603924,-83
603932,-63
603940,-50
603948,-41
603956,-45
603964,-52
603972,-54
603980,-52
603988,-49
603996,-46
604004,-43
604012,-36
604020,-31
604028,-29
604036,-31
604044,-33
604052,-33
604060,-34
604068,-36
604076,-59
604084,-99
604092,-148
604100,-193
604108,-217
604116,-224
604124,-217
604132,-200
604140,-187
604148,-179
604156,-173
604164,-165
604172,-152
604180,-140
604188,-131
604196,-121
604204,-106
604212,-87
604220,-82
604228,-88
604236,-95
604244,-97
604252,-99
604260,-109
604268,-113
604276,-115
604284,-117
604292,-120
604300,-120
604308,-114
604316,-110
604324,-110
604332,-107
604340,-102
604348,-97
604356,-94
604364,-98
604372,-106
604380,-115
604388,-111
604396,-101
604404,-99
604412,-105
604420,-110
604428,-111
604436,-106
604444,-100
604452,-102
604460,-104
604468,-101
604476,-94
604484,-92
604492,-95
604500,-99
604508,-94
604516,-87
604524,-85
604532,-89
604540,-94
604548,-91
604556,-84
604564,-79
604572,-76
604580,-77
604588,-77
604596,-73
604604,-70
604612,-68
604620,-65
604628,-50
604636,-34
604644,-24
604652,-22
604660,-28
604668,-39
604676,-45
604684,-50
604692,-51
604700,-21
604708,20
604716,-26
604724,-181
604732,-129
604740,513
604748,1373
604756,1533
604764,653
604772,-525
604780,-1058
604788,-856
604796,-488
604804,-325
604812,-265
604820,-167
604828,-102
604836,-66
604844,-36
604852,-15
604860,3
604868,17
604876,27
604884,36
604892,46
604900,48
604908,47
604916,40
604924,39
604932,42
604940,49
604948,63
604956,73
604964,78
604972,77
604980,79
604988,77
604996,72
605004,61
605012,57
605020,48
605028,27
605036,-21
605044,-77
605052,-121
605060,-140
605068,-142
605076,-133
605084,-121
605092,-103
605100,-81
605108,-60
605116,-51
605124,-45
605132,-35
605140,-25
605148,-15
605156,-4
605164,-1
605172,-1
605180,-3
605188,0
605196,-2
605204,-9
605212,-17
605220,-25
605228,-26
605236,-30
605244,-33
605252,-36
605260,-40
605268,-43
605276,-44
605284,-46
605292,-41
605300,-41
605308,-36
605316,-36
605324,-38
605332,-40
605340,-46
605348,-38
605356,-37
605364,-34
605372,-33
605380,-39
605388,-45
605396,-48
605404,-52
605412,-58
605420,-58
605428,-57
605436,-54
605444,-56
605452,-58
605460,-57
605468,-54
605476,-53
605484,-55
605492,-56
605500,-55
605508,-55
605516,-55
605524,-55
605532,-55
605540,-60
605548,-67
605556,-72
605564,-67
605572,-58
605580,-53
605588,-55
605596,-60
605604,-64
605612,-68
605620,-68
605628,-66
605636,-59
605644,-49
605652,-34
605660,-33
605668,-47
605676,-68
605684,-83
605692,-89
605700,-78
605708,-42
605716,-31
605724,-128
605732,-242
605740,16
605748,812
605756,1503
605764,1263
605772,152
605780,-890
605788,-1150
605796,-827
605804,-511
605812,-403
605820,-333
605828,-234
605836,-175
605844,-144
605852,-123
605860,-110
605868,-95
605876,-70
605884,-48
605892,-28
605900,-20
605908,-23
605916,-32
605924,-45
605932,-47
605940,-43
605948,-34
605956,-22
605964,-14
605972,-8
605980,0
605988,13
605996,22
606004,19
606012,10
606020,2
606028,-2
606036,-15
606044,-59
606052,-113
606060,-154
606068,-172
606076,-175
606084,-170
606092,-152
606100,-134
606108,-119
606116,-114
606124,-112
606132,-103
606140,-93
606148,-82
606156,-67
606164,-58
606172,-60
606180,-64
606188,-65
606196,-56
606204,-53
606212,-56
606220,-66
606228,-70
606236,-73
606244,-73
606252,-72
606260,-68
606268,-69
606276,-67
606284,-71
606292,-69
606300,-67
606308,-62
606316,-56
606324,-51
606332,-52
606340,-59
606348,-65
606356,-67
606364,-65
606372,-65
606380,-68
606388,-67
606396,-66
606404,-64
606412,-64
606420,-63
606428,-59
606436,-61
606444,-59
606452,-59
606460,-63
606468,-64
606476,-57
606484,-52
606492,-57
606500,-64
606508,-66
606516,-60
606524,-55
606532,-58
606540,-58
606548,-54
606556,-53
606564,-55
606572,-57
606580,-63
606588,-66
606596,-69
606604,-69
606612,-65
606620,-54
606628,-46
606636,-32
606644,-27
606652,-36
606660,-59
606668,-77
606676,-84
606684,-84
606692,-67
606700,-24
606708,-30
606716,-153
606724,-250
606732,112
606740,953
606748,1519
606756,1087
606764,-70
606772,-979
606780,-1094
606788,-746
606796,-472
606804,-384
606812,-303
606820,-213
606828,-177
606836,-161
606844,-144
606852,-124
606860,-100
606868,-81
606876,-68
606884,-58
606892,-51
606900,-49
606908,-50
606916,-56
606924,-59
606932,-62
606940,-58
606948,-54
606956,-53
606964,-48
606972,-32
606980,-26
606988,-16
606996,-17
607004,-24
607012,-28
607020,-36
607028,-54
607036,-95
607044,-142
607052,-184
607060,-200
607068,-200
607076,-186
607084,-165
607092,-140
607100,-124
607108,-118
607116,-115
607124,-106
607132,-95
607140,-85
607148,-73
607156,-63
607164,-56
607172,-49
607180,-46
607188,-43
607196,-41
607204,-45
607212,-43
607220,-43
607228,-40
607236,-44
607244,-45
607252,-45
607260,-48
607268,-51
607276,-48
607284,-47
607292,-39
607300,-36
607308,-37
607316,-38
607324,-38
607332,-32
607340,-31
607348,-33
607356,-36
607364,-36
607372,-34
607380,-38
607388,-47
607396,-53
607404,-59
607412,-62
607420,-68
607428,-64
607436,-54
607444,-51
607452,-51
607460,-59
607468,-71
607476,-81
607484,-87
607492,-93
607500,-98
607508,-98
607516,-98
607524,-97
607532,-92
607540,-83
607548,-72
607556,-63
607564,-58
607572,-57
607580,-50
607588,-34
607596,-9
607604,10
607612,17
607620,3
607628,-21
607636,-41
607644,-54
607652,-65
607660,-44
607668,-3
607676,-22
607684,-159
607692,-194
607700,288
607708,1168
607716,1589
607724,956
607732,-266
607740,-1064
607748,-1042
607756,-656
607764,-417
607772,-346
607780,-263
607788,-172
607796,-121
607804,-92
607812,-75
607820,-66
607828,-55
607836,-43
607844,-30
607852,-15
607860,-4
607868,-2
607876,-9
607884,-18
607892,-17
607900,-8
607908,-1
607916,1
607924,0
607932,8
607940,18
607948,25
607956,26
607964,25
607972,27
607980,23
607988,13
607996,-15
608004,-60
608012,-105
608020,-143
608028,-157
608036,-151
608044,-134
608052,-120
608060,-112
608068,-106
608076,-103
608084,-95
608092,-82
608100,-67
608108,-59
608116,-58
608124,-61
608132,-56
608140,-50
608148,-47
608156,-44
608164,-46
608172,-52
608180,-56
608188,-57
608196,-57
608204,-64
608212,-68
608220,-73
608228,-71
608236,-70
608244,-67
608252,-61
608260,-61
608268,-63
608276,-64
608284,-67
608292,-63
608300,-59
608308,-59
608316,-66
608324,-74
608332,-81
608340,-82
608348,-79
608356,-73
608364,-71
608372,-73
608380,-76
608388,-80
608396,-75
608404,-74
608412,-76
608420,-80
608428,-77
608436,-74
608444,-74
608452,-84
608460,-95
608468,-108
608476,-111
608484,-116
608492,-113
608500,-110
608508,-106
608516,-107
608524,-111
608532,-114
608540,-115
608548,-113
608556,-114
608564,-119
608572,-124
608580,-126
608588,-113
608596,-100
608604,-87
608612,-75
608620,-82
608628,-104
608636,-128
608644,-135
608652,-132
608660,-108
608668,-69
608676,-89
608684,-233
608692,-268
608700,218
608708,1080
608716,1451
608724,789
608732,-396
608740,-1109
608748,-1038
608756,-670
608764,-467
608772,-410
608780,-326
608788,-237
608796,-193
608804,-164
608812,-148
608820,-144
608828,-137
608836,-120
608844,-104
608852,-92
608860,-82
608868,-75
608876,-78
608884,-83
608892,-83
608900,-79
608908,-75
608916,-69
608924,-66
608932,-57
608940,-47
608948,-42
608956,-39
608964,-43
608972,-55
608980,-67
608988,-73
608996,-87
609004,-125
609012,-177
609020,-215
609028,-225
609036,-218
609044,-202
609052,-182
609060,-164
609068,-147
609076,-139
609084,-124
609092,-107
609100,-96
609108,-93
609116,-90
609124,-86
609132,-78
609140,-73
609148,-65
609156,-56
609164,-53
609172,-52
609180,-48
609188,-46
609196,-41
609204,-33
609212,-23
609220,-14
609228,-9
609236,-6
609244,-2
609252,7
609260,16
609268,20
609276,21
609284,23
609292,26
609300,34
609308,42
609316,42
609324,36
609332,30
609340,26
609348,31
609356,37
609364,42
609372,39
609380,32
609388,24
609396,24
609404,29
609412,33
609420,35
609428,36
609436,36
609444,37
609452,37
609460,31
609468,27
609476,25
609484,24
609492,26
609500,23
609508,21
609516,17
609524,10
609532,2
609540,-6
609548,-10
609556,-5
609564,10
609572,28
609580,34
609588,18
609596,-8
609604,-27
609612,-36
609620,-35
609628,1
609636,27
609644,-48
609652,-197
609660,-44
609668,684
609676,1464
609684,1410
609692,396
609700,-720
609708,-1105
609716,-838
609724,-498
609732,-376
609740,-314
609748,-211
609756,-145
609764,-115
609772,-95
609780,-83
609788,-63
609796,-46
609804,-29
609812,-13
609820,-4
609828,3
609836,2
609844,-12
609852,-22
609860,-26
609868,-15
609876,-2
609884,4
609892,4
609900,2
609908,6
609916,18
609924,25
609932,25
609940,14
609948,3
609956,-20
609964,-54
609972,-95
609980,-136
609988,-164
609996,-169
610004,-160
610012,-140
610020,-123
610028,-107
610036,-95
610044,-88
610052,-82
610060,-77
610068,-71
610076,-68
610084,-64
610092,-60
610100,-55
610108,-53
610116,-54
610124,-56
610132,-57
610140,-60
610148,-59
610156,-63
610164,-65
610172,-65
610180,-68
610188,-75
610196,-77
610204,-74
610212,-67
610220,-63
610228,-59
610236,-59
610244,-60
610252,-66
610260,-71
610268,-67
610276,-58
610284,-51
610292,-51
610300,-57
610308,-65
610316,-69
610324,-72
610332,-74
610340,-74
610348,-65
610356,-54
610364,-48
610372,-45
610380,-52
610388,-58
610396,-66
610404,-75
610412,-79
610420,-81
610428,-73
610436,-61
610444,-54
610452,-59
610460,-68
610468,-68
610476,-64
610484,-61
610492,-59
610500,-63
610508,-68
610516,-73
610524,-80
610532,-78
610540,-68
610548,-50
610556,-38
610564,-52
610572,-72
610580,-88
610588,-95
610596,-95
610604,-67
610612,-37
610620,-97
610628,-249
610636,-171
610644,477
610652,1304
610660,1413
610668,511
610676,-655
610684,-1175
610692,-976
610700,-613
610708,-451
610716,-389
610724,-295
610732,-224
610740,-191
610748,-163
610756,-146
610764,-135
610772,-124
610780,-109
610788,-100
610796,-88
610804,-76
610812,-74
610820,-80
610828,-89
610836,-94
610844,-89
610852,-78
610860,-66
610868,-55
610876,-47
610884,-45
610892,-43
610900,-46
610908,-46
610916,-56
610924,-72
610932,-86
610940,-112
610948,-148
610956,-189
610964,-213
610972,-216
610980,-206
610988,-194
610996,-177
611004,-153
611012,-133
611020,-123
611028,-124
611036,-129
611044,-126
611052,-117
611060,-108
611068,-98
611076,-96
611084,-101
611092,-105
611100,-107
611108,-107
611116,-99
611124,-94
611132,-93
611140,-98
611148,-100
611156,-101
611164,-96
611172,-97
611180,-96
611188,-100
611196,-97
611204,-96
611212,-94
611220,-102
611228,-107
611236,-104
611244,-105
611252,-108
611260,-107
611268,-108
611276,-106
611284,-104
611292,-98
611300,-98
611308,-96
611316,-100
611324,-103
611332,-99
611340,-89
611348,-91
611356,-93
611364,-96
611372,-95
611380,-96
611388,-93
611396,-93
611404,-96
611412,-98
611420,-101
611428,-97
611436,-92
611444,-89
611452,-80
611460,-69
611468,-63
611476,-70
611484,-80
611492,-82
611500,-87
611508,-78
611516,-30
611524,7
611532,-74
611540,-227
611548,-34
611556,751
611564,1512
611572,1365
611580,293
611588,-771
611596,-1055
611604,-738
611612,-415
611620,-305
611628,-236
611636,-129
611644,-68
611652,-31
611660,-3
611668,16
611676,30
611684,41
611692,41
611700,42
611708,47
611716,64
611724,78
611732,76
611740,62
611748,57
611756,59
611764,70
611772,72
611780,70
611788,71
611796,76
611804,80
611812,76
611820,68
611828,57
611836,38
611844,9
611852,-34
611860,-86
611868,-123
611876,-138
611884,-133
611892,-116
611900,-103
611908,-87
611916,-68
611924,-47
611932,-29
611940,-17
611948,-8
611956,-1
611964,11
611972,16
611980,15
611988,13
611996,7
612004,0
612012,-6
612020,-9
612028,-12
612036,-14
612044,-17
612052,-25
612060,-34
612068,-39
612076,-41
612084,-37
612092,-36
612100,-35
612108,-37
612116,-34
612124,-29
612132,-17
612140,-14
612148,-14
612156,-19
612164,-16
612172,-14
612180,-13
612188,-22
612196,-28
612204,-29
612212,-30
612220,-37
612228,-38
612236,-38
612244,-35
612252,-35
612260,-42
612268,-46
612276,-41
612284,-32
612292,-25
612300,-29
612308,-31
612316,-31
612324,-37
612332,-50
612340,-57
612348,-60
612356,-45
612364,-27
612372,-15
612380,-23
612388,-43
612396,-60
612404,-62
612412,-74
612420,-70
612428,-36
612436,-30
612444,-130
612452,-228
612460,87
612468,920
612476,1561
612484,1214
612492,42
612500,-969
612508,-1165
612516,-813
612524,-505
612532,-407
612540,-341
612548,-241
612556,-178
612564,-144
612572,-122
612580,-107
612588,-92
612596,-76
612604,-69
612612,-57
612620,-44
612628,-30
612636,-22
612644,-29
612652,-35
612660,-42
612668,-41
612676,-34
612684,-27
612692,-22
612700,-14
612708,-3
612716,10
612724,14
612732,9
612740,-1
612748,-13
612756,-41
612764,-89
612772,-143
612780,-175
612788,-186
612796,-180
612804,-164
612812,-145
612820,-122
612828,-101
612836,-94
612844,-97
612852,-102
612860,-98
612868,-89
612876,-74
612884,-63
612892,-56
612900,-56
612908,-55
612916,-46
612924,-42
612932,-49
612940,-65
612948,-70
612956,-70
612964,-66
612972,-62
612980,-56
612988,-53
612996,-51
613004,-60
613012,-64
613020,-59
613028,-53
613036,-49
613044,-47
613052,-45
613060,-44
613068,-55
613076,-70
613084,-73
613092,-56
613100,-43
613108,-45
613116,-61
613124,-83
613132,-90
613140,-90
613148,-85
613156,-85
613164,-85
613172,-79
613180,-70
613188,-64
613196,-70
613204,-87
613212,-95
613220,-93
613228,-85
613236,-82
613244,-81
613252,-85
613260,-88
613268,-85
613276,-86
613284,-87
613292,-79
613300,-64
613308,-51
613316,-43
613324,-35
613332,-38
613340,-49
613348,-60
613356,-62
613364,-54
613372,-44
613380,-49
613388,-62
613396,-85
613404,-98
613412,-105
613420,-104
613428,-78
613436,-48
613444,-113
613452,-269
613460,-200
613468,438
613476,1284
613484,1431
613492,554
613500,-629
613508,-1187
613516,-1002
613524,-622
613532,-442
613540,-378
613548,-281
613556,-204
613564,-166
613572,-134
613580,-115
613588,-102
613596,-89
613604,-81
613612,-77
613620,-74
613628,-74
613636,-77
613644,-88
613652,-94
613660,-95
613668,-85
613676,-70
613684,-60
613692,-52
613700,-42
613708,-25
613716,-14
613724,-4
613732,9
613740,11
613748,1
613756,-31
613764,-80
613772,-134
613780,-179
613788,-207
613796,-204
613804,-190
613812,-172
613820,-147
613828,-120
613836,-95
613844,-79
613852,-75
613860,-82
613868,-83
613876,-71
613884,-60
613892,-58
613900,-59
613908,-57
613916,-51
613924,-49
613932,-59
613940,-77
613948,-92
613956,-105
613964,-114
613972,-123
613980,-123
613988,-121
613996,-115
614004,-109
614012,-91
614020,-79
614028,-74
614036,-79
614044,-81
614052,-77
614060,-64
614068,-56
614076,-60
614084,-60
614092,-50
614100,-41
614108,-42
614116,-49
614124,-61
614132,-70
614140,-67
614148,-65
614156,-65
614164,-70
614172,-92
614180,-113
614188,-121
614196,-100
614204,-76
614212,-61
614220,-68
614228,-90
614236,-108
614244,-117
614252,-116
614260,-111
614268,-99
614276,-73
614284,-47
614292,-31
614300,-28
614308,-38
614316,-34
614324,-10
614332,20
614340,22
614348,-8
614356,-39
614364,-53
614372,-35
614380,18
614388,43
614396,-56
614404,-246
614412,-141
614420,559
614428,1350
614436,1329
614444,349
614452,-743
614460,-1109
614468,-825
614476,-500
614484,-410
614492,-384
614500,-298
614508,-223
614516,-180
614524,-158
614532,-154
614540,-149
614548,-140
614556,-131
614564,-114
614572,-92
614580,-67
614588,-52
614596,-43
614604,-31
614612,-24
614620,-30
614628,-43
614636,-44
614644,-24
614652,5
614660,29
614668,50
614676,65
614684,72
614692,67
614700,49
614708,17
614716,-29
614724,-82
614732,-125
614740,-137
614748,-127
614756,-100
614764,-73
614772,-47
614780,-23
614788,-9
614796,-1
614804,19
614812,48
614820,66
614828,53
614836,31
614844,23
614852,35
614860,42
614868,29
614876,7
614884,-6
614892,-5
614900,-9
614908,-24
614916,-34
614924,-28
614932,-8
614940,7
614948,5
614956,-2
614964,-5
614972,-3
614980,-3
614988,-4
614996,-4
615004,-3
615012,-3
615020,-1
615028,-2
615036,-4
615044,-6
615052,-13
615060,-18
615068,-13
615076,-7
615084,-4
615092,-14
615100,-25
615108,-30
615116,-49
615124,-78
615132,-84
615140,-80
615148,-109
615156,-188
615164,-241
615172,-93
615180,281
615188,642
615196,672
615204,341
615212,-50
615220,-216
615228,-159
615236,-75
615244,-82
615252,-133
615260,-186
615268,-226
615276,-241
615284,-220
615292,-176
615300,-126
615308,-97
615316,-158
615324,-290
615332,-145
615340,537
615348,1280
615356,1253
615364,309
615372,-745
615380,-1114
615388,-842
615396,-502
615404,-374
615412,-314
615420,-230
615428,-184
615436,-174
615444,-166
615452,-166
615460,-155
615468,-140
615476,-127
615484,-109
615492,-91
615500,-71
615508,-48
615516,-31
615524,-20
615532,-7
615540,19
615548,42
615556,51
615564,62
615572,78
615580,83
615588,71
615596,70
615604,98
615612,131
615620,122
615628,62
615636,-10
615644,-63
615652,-86
615660,-83
615668,-57
615676,-29
615684,-11
615692,9
615700,20
615708,13
615716,-5
615724,-11
615732,-2
615740,6
615748,-13
615756,-52
615764,-92
615772,-128
615780,-156
615788,-178
615796,-188
615804,-202
615812,-211
615820,-219
615828,-213
615836,-205
615844,-202
615852,-186
615860,-163
615868,-175
615876,-264
615884,-367
615892,-312
615900,-107
615908,64
615916,67
615924,-49
615932,-118
615940,-126
615948,-156
615956,-211
615964,-219
615972,-191
615980,-186
615988,-186
615996,-157
616004,-106
616012,-57
616020,-45
616028,-36
616036,-16
616044,-35
616052,-89
616060,-126
616068,-131
616076,-110
616084,-116
616092,-150
616100,-164
616108,-141
616116,-113
616124,-98
616132,-121
616140,-161
616148,-215
616156,-260
616164,-241
616172,-129
616180,22
616188,145
616196,185
616204,93
616212,2
616220,290
616228,1002
616236,1510
616244,1148
616252,120
616260,-628
616268,-604
616276,-264
616284,-178
616292,-292
616300,-307
616308,-255
616316,-272
616324,-288
616332,-229
616340,-168
616348,-204
616356,-312
616364,-368
616372,-308
616380,-209
616388,-169
616396,-189
616404,-186
616412,-110
616420,-16
616428,19
616436,-13
616444,-27
616452,12
616460,40
616468,22
616476,-15
616484,-37
616492,-31
616500,-18
616508,-38
616516,-95
616524,-133
616532,-150
616540,-195
616548,-240
616556,-228
616564,-165
616572,-125
616580,-145
616588,-163
616596,-120
616604,-96
616612,-163
616620,-221
616628,-133
616636,62
616644,195
616652,194
616660,121
616668,64
616676,66
616684,112
616692,150
616700,171
616708,217
616716,266
616724,206
616732,-7
616740,-222
616748,-253
616756,-112
616764,11
616772,27
616780,9
616788,14
616796,37
616804,52
616812,42
616820,19
616828,-11
616836,-26
616844,-36
616852,-51
616860,-63
616868,-58
616876,-32
616884,-24
616892,-69
616900,-138
616908,-170
616916,-123
616924,-61
616932,-68
616940,-106
616948,-90
616956,-14
616964,38
616972,11
616980,-82
616988,-171
616996,-228
617004,-287
617012,-346
617020,-359
617028,-341
617036,-331
617044,-351
617052,-400
617060,-431
617068,-388
617076,-330
617084,-381
617092,-470
617100,-181
617108,607
617116,1211
617124,830
617132,-344
617140,-1240
617148,-1186
617156,-597
617164,-194
617172,-155
617180,-170
617188,-123
617196,-81
617204,-66
617212,-55
617220,-37
617228,-17
617236,15
617244,59
617252,100
617260,112
617268,101
617276,88
617284,87
617292,81
617300,71
617308,69
617316,81
617324,91
617332,88
617340,82
617348,99
617356,132
617364,163
617372,167
617380,160
617388,149
617396,131
617404,90
617412,30
617420,-28
617428,-63
617436,-80
617444,-79
617452,-58
617460,-32
617468,-11
617476,-14
617484,-32
617492,-54
617500,-79
617508,-103
617516,-126
617524,-126
617532,-97
617540,-72
617548,-71
617556,-88
617564,-107
617572,-125
617580,-148
617588,-167
617596,-160
617604,-147
617612,-143
617620,-148
617628,-157
617636,-148
617644,-124
617652,-89
617660,-67
617668,-66
617676,-75
617684,-74
617692,-65
617700,-60
617708,-61
617716,-60
617724,-53
617732,-44
617740,-40
617748,-38
617756,-41
617764,-57
617772,-77
617780,-83
617788,-67
617796,-52
617804,-62
617812,-88
617820,-103
617828,-97
617836,-85
617844,-65
617852,-50
617860,-46
617868,-63
617876,-87
617884,-102
617892,-99
617900,-93
617908,-97
617916,-73
617924,-36
617932,-67
617940,-205
617948,-159
617956,472
617964,1367
617972,1580
617980,697
617988,-563
617996,-1195
618004,-1029
618012,-637
618020,-456
618028,-391
618036,-296
618044,-209
618052,-157
618060,-112
618068,-94
618076,-85
618084,-69
618092,-46
618100,-24
618108,-16
618116,-19
618124,-23
618132,-21
618140,-14
618148,-8
618156,-8
618164,-30
618172,-58
618180,-52
618188,-10
618196,30
618204,36
618212,31
618220,48
618228,87
618236,105
618244,79
618252,22
618260,-49
618268,-110
618276,-157
618284,-177
618292,-171
618300,-140
618308,-103
618316,-80
618324,-73
618332,-60
618340,-43
618348,-39
618356,-44
618364,-35
618372,-17
618380,-5
618388,-6
618396,-10
618404,-2
618412,13
618420,14
618428,-1
618436,-17
618444,-30
618452,-40
618460,-40
618468,-31
618476,-23
618484,-17
618492,-18
618500,-21
618508,-30
618516,-35
618524,-28
618532,-15
618540,-17
618548,-29
618556,-40
618564,-40
618572,-34
618580,-40
618588,-55
618596,-55
618604,-40
618612,-26
618620,-23
618628,-27
618636,-32
618644,-34
618652,-44
618660,-58
618668,-63
618676,-53
618684,-36
618692,-19
618700,-9
618708,-15
618716,-34
618724,-55
618732,-59
618740,-64
618748,-68
618756,-43
618764,-5
618772,-48
618780,-207
618788,-166
618796,476
618804,1384
618812,1603
618820,717
618828,-553
618836,-1197
618844,-1028
618852,-627
618860,-440
618868,-379
618876,-275
618884,-183
618892,-142
618900,-121
618908,-112
618916,-99
618924,-83
618932,-75
618940,-66
618948,-52
618956,-43
618964,-61
618972,-92
618980,-94
618988,-77
618996,-57
619004,-19
619012,61
619020,144
619028,148
619036,44
619044,-74
619052,-121
619060,-92
619068,-55
619076,-27
619084,-9
619092,-14
619100,-58
619108,-87
619116,-60
619124,-26
619132,-62
619140,-150
619148,-198
619156,-148
619164,-35
619172,68
619180,129
619188,151
619196,131
619204,98
619212,68
619220,53
619228,41
619236,41
619244,59
619252,83
619260,93
619268,89
619276,67
619284,37
619292,-2
619300,-41
619308,-78
619316,-108
619324,-116
619332,-133
619340,-157
619348,-159
619356,-129
619364,-105
619372,-120
619380,-164
619388,-204
619396,-231
619404,-267
619412,-296
619420,-275
619428,-232
619436,-224
619444,-216
619452,-132
619460,-31
619468,-37
619476,-137
619484,-205
619492,-156
619500,-52
619508,-5
619516,40
619524,167
619532,319
619540,384
619548,361
619556,306
619564,254
619572,180
619580,67
619588,-35
619596,-46
619604,-21
619612,-44
619620,-13
619628,138
619636,427
619644,910
619652,1494
619660,2055
619668,2560
619676,3026
619684,3826
619692,5518
619700,7925
619708,9915
619716,10412
619724,9219
619732,6771
619740,3668
619748,486
619756,-2094
619764,-3448
619772,-3712
619780,-3500
619788,-3106
619796,-2590
619804,-2154
619812,-1980
619820,-2009
619828,-2137
619836,-2350
619844,-2597
619852,-2722
619860,-2642
619868,-2441
619876,-2219
619884,-1975
619892,-1674
619900,-1428
619908,-1322
619916,-1253
619924,-1102
619932,-915
619940,-827
619948,-844
619956,-836
619964,-760
619972,-696
619980,-706
619988,-724
619996,-617
620004,-428
620012,-353
620020,-488
620028,-706
620036,-815
620044,-763
620052,-679
620060,-691
620068,-699
620076,-568
620084,-398
620092,-383
620100,-524
620108,-657
620116,-663
620124,-579
620132,-513
620140,-456
620148,-382
620156,-349
620164,-368
620172,-388
620180,-395
620188,-422
620196,-474
620204,-523
620212,-547
620220,-537
620228,-528
620236,-506
620244,-432
620252,-291
620260,-140
620268,-65
620276,-63
620284,-60
620292,-40
620300,-21
620308,-7
620316,2
620324,-69
620332,-203
620340,-302
620348,-347
620356,-401
620364,-490
620372,-572
620380,-602
620388,-628
620396,-691
620404,-699
620412,-581
620420,-432
620428,-377
620436,-457
620444,-656
620452,-797
620460,-737
620468,-580
620476,-536
620484,-601
620492,-609
620500,-446
620508,-214
620516,-68
620524,-17
620532,30
620540,64
620548,89
620556,126
620564,152
620572,83
620580,-57
620588,-200
620596,-384
620604,-736
620612,-1066
620620,-885
620628,-195
620636,185
620644,-472
620652,-1838
620660,-2837
620668,-2874
620676,-2317
620684,-1769
620692,-1386
620700,-1014
620708,-626
620716,-333
620724,-210
620732,-221
620740,-235
620748,-200
620756,-172
620764,-171
620772,-159
620780,-138
620788,-152
620796,-219
620804,-266
620812,-227
620820,-127
620828,-33
620836,13
620844,26
620852,29
620860,34
620868,56
620876,94
620884,127
620892,134
620900,164
620908,233
620916,286
620924,272
620932,226
620940,219
620948,269
620956,333
620964,355
620972,362
620980,380
620988,388
620996,381
621004,361
621012,338
621020,323
621028,325
621036,348
621044,372
621052,369
621060,327
621068,274
621076,251
621084,259
621092,273
621100,269
621108,251
621116,233
621124,227
621132,228
621140,227
621148,222
621156,206
621164,179
621172,148
621180,136
621188,145
621196,158
621204,169
621212,188
621220,204
621228,189
621236,155
621244,134
621252,134
621260,146
621268,155
621276,158
621284,156
621292,152
621300,156
621308,171
621316,184
621324,180
621332,156
621340,136
621348,118
621356,98
621364,113
621372,159
621380,136
621388,-15
621396,-49
621404,475
621412,1393
621420,1774
621428,1038
621436,-252
621444,-1031
621452,-963
621460,-563
621468,-338
621476,-266
621484,-170
621492,-83
621500,-46
621508,-20
621516,-12
621524,-7
621532,-8
621540,-7
621548,3
621556,14
621564,21
621572,30
621580,41
621588,50
621596,56
621604,60
621612,71
621620,84
621628,89
621636,87
621644,85
621652,87
621660,87
621668,89
621676,89
621684,74
621692,38
621700,-18
621708,-76
621716,-115
621724,-137
621732,-142
621740,-134
621748,-110
621756,-71
621764,-44
621772,-34
621780,-40
621788,-40
621796,-29
621804,-21
621812,-33
621820,-51
621828,-56
621836,-33
621844,-6
621852,14
621860,30
621868,48
621876,56
621884,52
621892,36
621900,19
621908,8
621916,2
621924,-2
621932,-1
621940,2
621948,3
621956,7
621964,11
621972,17
621980,20
621988,22
621996,23
622004,23
622012,19
622020,21
622028,19
622036,13
622044,9
622052,11
622060,6
622068,2
622076,-2
622084,12
622092,30
622100,31
622108,7
622116,-18
622124,-21
622132,-17
622140,-8
622148,30
622156,58
622164,-4
622172,-149
622180,-28
622188,705
622196,1567
622204,1595
622212,553
622220,-693
622228,-1197
622236,-945
622244,-572
622252,-423
622260,-342
622268,-213
622276,-142
622284,-139
622292,-135
622300,-105
622308,-43
622316,10
622324,28
622332,57
622340,128
622348,229
622356,321
622364,351
622372,314
622380,230
622388,140
622396,64
622404,21
622412,5
622420,0
622428,-7
622436,-14
622444,-10
622452,-6
622460,-10
622468,-33
622476,-74
622484,-127
622492,-192
622500,-245
622508,-255
622516,-225
622524,-190
622532,-170
622540,-164
622548,-157
622556,-153
622564,-158
622572,-160
622580,-155
622588,-145
622596,-142
622604,-125
622612,-102
622620,-88
622628,-93
622636,-111
622644,-121
622652,-110
622660,-98
622668,-103
622676,-128
622684,-142
622692,-130
622700,-113
622708,-99
622716,-79
622724,-56
622732,-44
622740,-49
622748,-63
622756,-68
622764,-56
622772,-42
622780,-22
622788,-5
622796,7
622804,0
622812,-13
622820,-27
622828,-40
622836,-45
622844,-45
622852,-52
622860,-69
622868,-87
622876,-91
622884,-90
622892,-85
622900,-81
622908,-71
622916,-77
622924,-78
622932,-62
622940,-47
622948,-67
622956,-113
622964,-130
622972,-90
622980,-52
622988,-47
622996,-36
623004,-25
623012,-111
623020,-265
623028,-81
623036,684
623044,1436
623052,1302
623060,250
623068,-822
623076,-1151
623084,-889
623092,-584
623100,-466
623108,-378
623116,-278
623124,-223
623132,-188
623140,-157
623148,-146
623156,-133
623164,-118
623172,-115
623180,-121
623188,-122
623196,-99
623204,-78
623212,-71
623220,-63
623228,-58
623236,-57
623244,-56
623252,-52
623260,-53
623268,-58
623276,-55
623284,-39
623292,-18
623300,-3
623308,3
623316,1
623324,-40
623332,-113
623340,-170
623348,-184
623356,-176
623364,-160
623372,-129
623380,-84
623388,-59
623396,-82
623404,-106
623412,-91
623420,-56
623428,-52
623436,-78
623444,-93
623452,-80
623460,-61
623468,-63
623476,-69
623484,-53
623492,-24
623500,-16
623508,-51
623516,-97
623524,-101
623532,-62
623540,-32
623548,-37
623556,-60
623564,-69
623572,-58
623580,-51
623588,-56
623596,-53
623604,-32
623612,-7
623620,1
623628,-11
623636,-18
623644,-20
623652,-17
623660,-10
623668,-8
623676,-8
623684,-10
623692,-3
623700,0
623708,-2
623716,7
623724,28
623732,38
623740,24
623748,-7
623756,-46
623764,-78
623772,-97
623780,-118
623788,-119
623796,-84
623804,-69
623812,-168
623820,-228
623828,182
623836,1090
623844,1685
623852,1223
623860,0
623868,-951
623876,-1093
623884,-770
623892,-518
623900,-421
623908,-327
623916,-241
623924,-200
623932,-157
623940,-124
623948,-122
623956,-118
623964,-96
623972,-51
623980,-22
623988,-1
623996,48
624004,89
624012,74
624020,10
624028,-45
624036,-53
624044,-12
624052,42
624060,89
624068,110
624076,63
624084,-6
624092,-22
624100,-2
624108,8
624116,-10
624124,-44
624132,-83
624140,-123
624148,-176
624156,-220
624164,-232
624172,-239
624180,-234
624188,-187
624196,-133
624204,-125
624212,-146
624220,-162
624228,-147
624236,-147
624244,-172
624252,-165
624260,-95
624268,-27
624276,-11
624284,-19
624292,-31
624300,-42
624308,-58
624316,-84
624324,-100
624332,-103
624340,-99
624348,-88
624356,-74
624364,-68
624372,-67
624380,-60
624388,-50
624396,-42
624404,-30
624412,-16
624420,-8
624428,-5
624436,-8
624444,-14
624452,-22
624460,-39
624468,-63
624476,-85
624484,-94
624492,-97
624500,-96
624508,-87
624516,-69
624524,-40
624532,-21
624540,-25
624548,-44
624556,-60
624564,-59
624572,-64
624580,-59
624588,-16
624596,17
624604,-71
624612,-212
624620,26
624628,851
624636,1599
624644,1374
624652,204
624660,-905
624668,-1179
624676,-829
624684,-492
624692,-387
624700,-320
624708,-227
624716,-180
624724,-155
624732,-123
624740,-105
624748,-92
624756,-73
624764,-56
624772,-40
624780,-43
624788,-46
624796,-39
624804,-27
624812,-19
624820,-7
624828,10
624836,17
624844,10
624852,5
624860,5
624868,16
624876,23
624884,22
624892,22
624900,22
624908,4
624916,-30
624924,-84
624932,-134
624940,-167
624948,-168
624956,-149
624964,-124
624972,-99
624980,-81
624988,-70
624996,-65
625004,-66
625012,-64
625020,-60
625028,-57
625036,-52
625044,-49
625052,-43
625060,-40
625068,-47
625076,-48
625084,-40
625092,-28
625100,-23
625108,-26
625116,-33
625124,-39
625132,-43
625140,-45
625148,-54
625156,-58
625164,-54
625172,-47
625180,-49
625188,-52
625196,-47
625204,-32
625212,-25
625220,-33
625228,-44
625236,-49
625244,-46
625252,-42
625260,-46
625268,-45
625276,-43
625284,-44
625292,-51
625300,-57
625308,-58
625316,-53
625324,-46
625332,-41
625340,-33
625348,-30
625356,-29
625364,-27
625372,-37
625380,-49
625388,-53
625396,-36
625404,-15
625412,-8
625420,-23
625428,-48
625436,-58
625444,-63
625452,-66
625460,-29
625468,-1
625476,-68
625484,-207
625492,-29
625500,714
625508,1486
625516,1392
625524,338
625532,-771
625540,-1125
625548,-828
625556,-472
625564,-338
625572,-262
625580,-164
625588,-115
625596,-96
625604,-78
625612,-76
625620,-87
625628,-104
625636,-111
625644,-115
625652,-115
625660,-107
625668,-93
625676,-74
625684,-68
625692,-70
625700,-70
625708,-61
625716,-44
625724,-26
625732,-6
625740,14
625748,27
625756,31
625764,27
625772,18
625780,1
625788,-34
625796,-83
625804,-128
625812,-158
625820,-174
625828,-170
625836,-153
625844,-134
625852,-119
625860,-108
625868,-96
625876,-92
625884,-91
625892,-87
625900,-79
625908,-77
625916,-83
625924,-76
625932,-53
625940,-20
625948,-13
625956,-25
625964,-35
625972,-23
625980,-14
625988,-19
625996,-30
626004,-32
626012,-28
626020,-30
626028,-28
626036,-19
626044,-11
626052,-18
626060,-29
626068,-36
626076,-31
626084,-25
626092,-31
626100,-40
626108,-46
626116,-55
626124,-72
626132,-87
626140,-100
626148,-101
626156,-91
626164,-76
626172,-69
626180,-70
626188,-72
626196,-74
626204,-70
626212,-70
626220,-70
626228,-65
626236,-58
626244,-58
626252,-56
626260,-54
626268,-50
626276,-51
626284,-53
626292,-66
626300,-63
626308,-42
626316,-29
626324,-44
626332,-74
626340,-100
626348,-107
626356,-116
626364,-123
626372,-85
626380,-20
626388,-47
626396,-211
626404,-218
626412,340
626420,1192
626428,1446
626436,669
626444,-496
626452,-1105
626460,-973
626468,-623
626476,-447
626484,-374
626492,-273
626500,-189
626508,-146
626516,-118
626524,-107
626532,-102
626540,-86
626548,-67
626556,-58
626564,-57
626572,-61
626580,-61
626588,-55
626596,-47
626604,-42
626612,-40
626620,-47
626628,-48
626636,-47
626644,-38
626652,-34
626660,-41
626668,-58
626676,-72
626684,-77
626692,-79
626700,-96
626708,-127
626716,-172
626724,-207
626732,-222
626740,-219
626748,-203
626756,-175
626764,-153
626772,-137
626780,-123
626788,-104
626796,-85
626804,-81
626812,-82
626820,-84
626828,-77
626836,-61
626844,-48
626852,-46
626860,-48
626868,-54
626876,-51
626884,-40
626892,-29
626900,-30
626908,-40
626916,-40
626924,-37
626932,-35
626940,-31
626948,-15
626956,6
626964,3
626972,-24
626980,-44
626988,-43
626996,-33
627004,-38
627012,-42
627020,-25
627028,-9
627036,-20
627044,-40
627052,-40
627060,-15
627068,1
627076,-3
627084,-9
627092,-10
627100,-9
627108,-14
627116,-12
627124,2
627132,22
627140,35
627148,36
627156,24
627164,4
627172,-5
627180,1
627188,10
627196,24
627204,38
627212,29
627220,-3
627228,-39
627236,-57
627244,-65
627252,-76
627260,-69
627268,-30
627276,-40
627284,-169
627292,-221
627300,252
627308,1110
627316,1478
627324,791
627332,-447
627340,-1208
627348,-1130
627356,-695
627364,-426
627372,-323
627380,-205
627388,-100
627396,-41
627404,6
627412,25
627420,22
627428,4
627436,-17
627444,-23
627452,-20
627460,-20
627468,-27
627476,-36
627484,-38
627492,-47
627500,-57
627508,-62
627516,-62
627524,-67
627532,-75
627540,-69
627548,-50
627556,-28
627564,-21
627572,-24
627580,-33
627588,-58
627596,-100
627604,-142
627612,-160
627620,-162
627628,-172
627636,-180
627644,-166
627652,-123
627660,-88
627668,-79
627676,-76
627684,-62
627692,-53
627700,-61
627708,-79
627716,-83
627724,-77
627732,-72
627740,-71
627748,-65
627756,-60
627764,-51
627772,-44
627780,-45
627788,-60
627796,-76
627804,-80
627812,-66
627820,-52
627828,-53
627836,-64
627844,-73
627852,-68
627860,-65
627868,-64
627876,-63
627884,-63
627892,-66
627900,-69
627908,-68
627916,-64
627924,-69
627932,-76
627940,-85
627948,-85
627956,-80
627964,-73
627972,-71
627980,-73
627988,-80
627996,-84
628004,-82
628012,-80
628020,-82
628028,-76
628036,-61
628044,-53
628052,-60
628060,-70
628068,-60
628076,-28
628084,1
628092,3
628100,-20
628108,-49
628116,-59
628124,-61
628132,-69
628140,-63
628148,-31
628156,-40
628164,-170
628172,-240
628180,196
628188,1070
628196,1545
628204,963
628212,-244
628220,-1058
628228,-1054
628236,-670
628244,-431
628252,-375
628260,-306
628268,-226
628276,-174
628284,-132
628292,-100
628300,-91
628308,-86
628316,-84
628324,-76
628332,-57
628340,-36
628348,-28
628356,-31
628364,-34
628372,-27
628380,-15
628388,-6
628396,-5
628404,-2
628412,1
628420,0
628428,-6
628436,-9
628444,-7
628452,-3
628460,-3
628468,-16
628476,-54
628484,-105
628492,-144
628500,-163
628508,-162
628516,-154
628524,-138
628532,-121
628540,-111
628548,-107
628556,-93
628564,-80
628572,-74
628580,-75
628588,-72
628596,-59
628604,-41
628612,-34
628620,-39
628628,-37
628636,-31
628644,-31
628652,-56
628660,-81
628668,-103
628676,-102
628684,-93
628692,-83
628700,-74
628708,-68
628716,-74
628724,-77
628732,-70
628740,-64
628748,-62
628756,-67
628764,-68
628772,-61
628780,-55
628788,-62
628796,-77
628804,-82
628812,-76
628820,-72
628828,-76
628836,-80
628844,-81
628852,-83
628860,-91
628868,-98
628876,-96
628884,-78
628892,-67
628900,-73
628908,-87
628916,-90
628924,-81
628932,-71
628940,-68
628948,-70
628956,-74
628964,-80
628972,-82
628980,-70
628988,-66
628996,-64
629004,-46
629012,-46
629020,-149
629028,-290
629036,-48
629044,754
629052,1458
629060,1218
629068,101
629076,-929
629084,-1173
629092,-855
629100,-565
629108,-480
629116,-412
629124,-309
629132,-254
629140,-227
629148,-220
629156,-226
629164,-225
629172,-220
629180,-219
629188,-217
629196,-209
629204,-199
629212,-195
629220,-195
629228,-184
629236,-162
629244,-145
629252,-136
629260,-126
629268,-109
629276,-88
629284,-66
629292,-57
629300,-69
629308,-96
629316,-118
629324,-123
629332,-143
629340,-190
629348,-243
629356,-284
629364,-288
629372,-267
629380,-245
629388,-229
629396,-211
629404,-192
629412,-181
629420,-181
629428,-180
629436,-186
629444,-208
629452,-240
629460,-261
629468,-270
629476,-273
629484,-273
629492,-268
629500,-254
629508,-235
629516,-217
629524,-201
629532,-187
629540,-176
629548,-170
629556,-166
629564,-149
629572,-126
629580,-100
629588,-88
629596,-88
629604,-82
629612,-54
629620,-13
629628,20
629636,31
629644,28
629652,34
629660,49
629668,60
629676,64
629684,64
629692,67
629700,87
629708,120
629716,162
629724,192
629732,197
629740,180
629748,157
629756,144
629764,129
629772,126
629780,162
629788,186
629796,88
629804,-64
629812,183
629820,1025
629828,1748
629836,1470
629844,289
629852,-775
629860,-993
629868,-640
629876,-328
629884,-232
629892,-148
629900,-43
629908,-1
629916,7
629924,-5
629932,-13
629940,-2
629948,26
629956,40
629964,38
629972,35
629980,59
629988,90
629996,105
630004,84
630012,49
630020,27
630028,28
630036,36
630044,40
630052,50
630060,69
630068,79
630076,62
630084,41
630092,17
630100,-5
630108,-41
630116,-83
630124,-119
630132,-145
630140,-153
630148,-146
630156,-126
630164,-110
630172,-100
630180,-92
630188,-72
630196,-41
630204,-20
630212,-16
630220,-21
630228,-19
630236,-12
630244,-9
630252,-15
630260,-21
630268,-28
630276,-30
630284,-24
630292,-11
630300,-5
630308,-10
630316,-18
630324,-19
630332,-19
630340,-27
630348,-40
630356,-43
630364,-21
630372,6
630380,24
630388,24
630396,16
630404,3
630412,-12
630420,-17
630428,-6
630436,13
630444,32
630452,32
630460,13
630468,-21
630476,-58
630484,-74
630492,-74
630500,-45
630508,13
630516,49
630524,-47
630532,-248
630540,-167
630548,550
630556,1418
630564,1467
630572,452
630580,-778
630588,-1268
630596,-1000
630604,-609
630612,-456
630620,-400
630628,-289
630636,-203
630644,-154
630652,-116
630660,-95
630668,-70
630676,-44
630684,-31
630692,-24
630700,-16
630708,-18
630716,-25
630724,-25
630732,-20
630740,-21
630748,-20
630756,-12
630764,6
630772,26
630780,33
630788,22
630796,14
630804,23
630812,39
630820,34
630828,-2
630836,-56
630844,-109
630852,-146
630860,-162
630868,-157
630876,-141
630884,-119
630892,-102
630900,-81
630908,-68
630916,-54
630924,-43
630932,-38
630940,-37
630948,-31
630956,-21
630964,-14
630972,-14
630980,-15
630988,-11
630996,0
631004,6
631012,-3
631020,-12
631028,-23
631036,-35
631044,-46
631052,-54
631060,-62
631068,-76
631076,-87
631084,-89
631092,-85
631100,-88
631108,-94
631116,-104
631124,-106
631132,-101
631140,-87
631148,-80
631156,-82
631164,-76
631172,-58
631180,-45
631188,-55
631196,-72
631204,-83
631212,-82
631220,-82
631228,-83
631236,-79
631244,-79
631252,-83
631260,-83
631268,-73
631276,-60
631284,-62
631292,-71
631300,-73
631308,-64
631316,-52
631324,-59
631332,-66
631340,-36
631348,-13
631356,-93
631364,-248
631372,-80
631380,694
631388,1501
631396,1419
631404,346
631412,-804
631420,-1177
631428,-877
631436,-532
631444,-410
631452,-339
631460,-220
631468,-147
631476,-109
631484,-84
631492,-71
631500,-56
631508,-42
631516,-29
631524,-18
631532,-7
631540,-4
631548,3
631556,9
631564,7
631572,0
631580,-4
631588,-14
631596,-19
631604,-20
631612,-12
631620,-2
631628,14
631636,20
631644,7
631652,-17
631660,-39
631668,-68
631676,-102
631684,-145
631692,-187
631700,-196
631708,-180
631716,-150
631724,-134
631732,-123
631740,-130
631748,-130
631756,-121
631764,-111
631772,-108
631780,-111
631788,-112
631796,-111
631804,-102
631812,-98
631820,-87
631828,-68
631836,-57
631844,-62
631852,-67
631860,-66
631868,-57
631876,-46
631884,-41
631892,-31
631900,-27
631908,-33
631916,-46
631924,-53
631932,-55
631940,-56
631948,-60
631956,-64
631964,-57
631972,-48
631980,-37
631988,-37
631996,-34
632004,-34
632012,-32
632020,-33
632028,-29
632036,-28
632044,-26
632052,-29
632060,-21
632068,-11
632076,-8
632084,-18
632092,-28
632100,-35
632108,-43
632116,-65
632124,-101
632132,-126
632140,-126
632148,-111
632156,-97
632164,-91
632172,-94
632180,-98
632188,-100
632196,-95
632204,-79
632212,-59
632220,-52
632228,-58
632236,-71
632244,-77
632252,-67
632260,-56
632268,-50
632276,-28
632284,-21
632292,-119
632300,-268
632308,-72
632316,702
632324,1462
632332,1313
632340,229
632348,-865
632356,-1178
632364,-864
632372,-523
632380,-410
632388,-347
632396,-253
632404,-182
632412,-134
632420,-102
632428,-98
632436,-93
632444,-74
632452,-49
632460,-35
632468,-34
632476,-38
632484,-34
632492,-17
632500,-1
632508,9
632516,3
632524,-10
632532,-13
632540,2
632548,38
632556,60
632564,61
632572,53
632580,52
632588,56
632596,59
632604,41
632612,-9
632620,-81
632628,-137
632636,-165
632644,-176
632652,-185
632660,-184
632668,-171
632676,-159
632684,-151
632692,-147
632700,-141
632708,-133
632716,-129
632724,-119
632732,-96
632740,-73
632748,-61
632756,-55
632764,-46
632772,-42
632780,-46
632788,-58
632796,-65
632804,-64
632812,-75
632820,-95
632828,-102
632836,-92
632844,-88
632852,-97
632860,-103
632868,-94
632876,-72
632884,-63
632892,-67
632900,-72
632908,-78
632916,-86
632924,-88
632932,-85
632940,-73
632948,-63
632956,-55
632964,-65
632972,-85
632980,-91
632988,-83
632996,-64
633004,-55
633012,-58
633020,-67
633028,-68
633036,-60
633044,-58
633052,-53
633060,-31
633068,-6
633076,-2
633084,-27
633092,-60
633100,-63
633108,-38
633116,-28
633124,-45
633132,-71
633140,-93
633148,-103
633156,-94
633164,-80
633172,-85
633180,-112
633188,-140
633196,-138
633204,-122
633212,-108
633220,-85
633228,-63
633236,-133
633244,-273
633252,-86
633260,690
633268,1465
633276,1331
633284,236
633292,-880
633300,-1193
633308,-864
633316,-527
633324,-424
633332,-370
633340,-270
633348,-202
633356,-154
633364,-118
633372,-107
633380,-105
633388,-105
633396,-99
633404,-87
633412,-75
633420,-61
633428,-49
633436,-48
633444,-46
633452,-22
633460,14
633468,35
633476,39
633484,34
633492,19
633500,-3
633508,-10
633516,12
633524,42
633532,44
633540,2
633548,-62
633556,-122
633564,-166
633572,-199
633580,-224
633588,-228
633596,-199
633604,-152
633612,-120
633620,-101
633628,-95
633636,-95
633644,-89
633652,-76
633660,-47
633668,-29
633676,-28
633684,-28
633692,-15
633700,20
633708,53
633716,56
633724,26
633732,-12
633740,-31
633748,-30
633756,-25
633764,-25
633772,-29
633780,-33
633788,-31
633796,-33
633804,-39
633812,-41
633820,-35
633828,-23
633836,-24
633844,-31
633852,-31
633860,-14
633868,-2
633876,-4
633884,-18
633892,-20
633900,-6
633908,4
633916,-1
633924,-7
633932,-10
633940,-11
633948,-10
633956,-16
633964,-35
633972,-61
633980,-77
633988,-70
633996,-48
634004,-46
634012,-58
634020,-60
634028,-48
634036,-30
634044,-29
634052,-45
634060,-64
634068,-68
634076,-61
634084,-42
634092,-27
634100,-33
634108,-57
634116,-67
634124,-60
634132,-42
634140,-42
634148,-33
634156,-4
634164,-26
634172,-176
634180,-208
634188,316
634196,1214
634204,1570
634212,840
634220,-406
634228,-1131
634236,-1027
634244,-629
634252,-412
634260,-344
634268,-255
634276,-168
634284,-107
634292,-62
634300,-57
634308,-76
634316,-75
634324,-55
634332,-33
634340,-30
634348,-41
634356,-47
634364,-47
634372,-38
634380,-26
634388,-17
634396,-16
634404,-15
634412,-10
634420,6
634428,18
634436,18
634444,8
634452,-9
634460,-10
634468,-5
634476,-16
634484,-55
634492,-117
634500,-165
634508,-177
634516,-170
634524,-162
634532,-150
634540,-136
634548,-118
634556,-99
634564,-86
634572,-70
634580,-64
634588,-65
634596,-72
634604,-69
634612,-55
634620,-47
634628,-48
634636,-50
634644,-48
634652,-42
634660,-41
634668,-45
634676,-46
634684,-41
634692,-37
634700,-42
634708,-52
634716,-60
634724,-55
634732,-48
634740,-50
634748,-61
634756,-76
634764,-87
634772,-91
634780,-89
634788,-82
634796,-74
634804,-69
634812,-67
634820,-63
634828,-60
634836,-56
634844,-54
634852,-49
634860,-42
634868,-35
634876,-43
634884,-53
634892,-60
634900,-55
634908,-54
634916,-63
634924,-72
634932,-75
634940,-61
634948,-41
634956,-26
634964,-20
634972,-24
634980,-34
634988,-43
634996,-52
635004,-56
635012,-58
635020,-59
635028,-51
635036,-37
635044,-21
635052,-18
635060,-44
635068,-81
635076,-95
635084,-92
635092,-75
635100,-44
635108,-53
635116,-171
635124,-279
635132,44
635140,891
635148,1532
635156,1174
635164,0
635172,-988
635180,-1145
635188,-769
635196,-467
635204,-377
635212,-305
635220,-204
635228,-147
635236,-117
635244,-108
635252,-101
635260,-83
635268,-68
635276,-62
635284,-54
635292,-53
635300,-47
635308,-38
635316,-36
635324,-36
635332,-42
635340,-52
635348,-48
635356,-30
635364,-16
635372,-20
635380,-25
635388,-15
635396,2
635404,7
635412,-4
635420,-24
635428,-61
635436,-119
635444,-179
635452,-203
635460,-199
635468,-192
635476,-188
635484,-186
635492,-169
635500,-145
635508,-130
635516,-130
635524,-132
635532,-125
635540,-98
635548,-71
635556,-64
635564,-75
635572,-87
635580,-85
635588,-72
635596,-67
635604,-76
635612,-97
635620,-113
635628,-119
635636,-108
635644,-78
635652,-54
635660,-56
635668,-78
635676,-106
635684,-127
635692,-132
635700,-121
635708,-99
635716,-84
635724,-89
635732,-98
635740,-84
635748,-60
635756,-53
635764,-73
635772,-94
635780,-87
635788,-62
635796,-45
635804,-49
635812,-63
635820,-72
635828,-67
635836,-64
635844,-69
635852,-66
635860,-63
635868,-68
635876,-79
635884,-73
635892,-53
635900,-43
635908,-51
635916,-68
635924,-70
635932,-51
635940,-35
635948,-36
635956,-55
635964,-63
635972,-47
635980,-19
635988,-4
635996,-11
636004,-27
636012,-48
636020,-64
636028,-58
636036,-45
636044,-36
636052,-12
636060,8
636068,-48
636076,-204
636084,-117
636092,570
636100,1416
636108,1493
636116,535
636124,-646
636132,-1133
636140,-887
636148,-511
636156,-369
636164,-316
636172,-227
636180,-159
636188,-121
636196,-89
636204,-65
636212,-39
636220,-15
636228,-3
636236,6
636244,13
636252,19
636260,22
636268,27
636276,30
636284,27
636292,14
636300,1
636308,-12
636316,-10
636324,5
636332,25
636340,44
636348,49
636356,45
636364,27
636372,7
636380,-12
636388,-35
636396,-77
636404,-138
636412,-192
636420,-201
636428,-166
636436,-123
636444,-91
636452,-78
636460,-70
636468,-58
636476,-45
636484,-37
636492,-37
636500,-39
636508,-36
636516,-36
636524,-43
636532,-57
636540,-59
636548,-48
636556,-34
636564,-30
636572,-37
636580,-54
636588,-68
636596,-73
636604,-61
636612,-49
636620,-40
636628,-47
636636,-58
636644,-60
636652,-62
636660,-63
636668,-58
636676,-44
636684,-28
636692,-32
636700,-56
636708,-62
636716,-49
636724,-31
636732,-33
636740,-52
636748,-57
636756,-52
636764,-40
636772,-28
636780,-28
636788,-45
636796,-75
636804,-92
636812,-80
636820,-61
636828,-58
636836,-73
636844,-81
636852,-69
636860,-54
636868,-53
636876,-59
636884,-66
636892,-64
636900,-73
636908,-77
636916,-74
636924,-56
636932,-39
636940,-36
636948,-45
636956,-55
636964,-65
636972,-62
636980,-68
636988,-75
636996,-50
637004,-9
637012,-49
637020,-206
637028,-169
637036,457
637044,1328
637052,1509
637060,628
637068,-589
637076,-1171
637084,-984
637092,-600
637100,-423
637108,-361
637116,-257
637124,-176
637132,-138
637140,-117
637148,-116
637156,-112
637164,-98
637172,-93
637180,-100
637188,-100
637196,-83
637204,-55
637212,-37
637220,-36
637228,-33
637236,-40
637244,-55
637252,-61
637260,-48
637268,-25
637276,-6
637284,8
637292,7
637300,-11
637308,-26
637316,-26
637324,-29
637332,-77
637340,-157
637348,-213
637356,-206
637364,-172
637372,-156
637380,-151
637388,-127
637396,-112
637404,-111
637412,-106
637420,-88
637428,-75
637436,-71
637444,-66
637452,-37
637460,-3
637468,-2
637476,-33
637484,-46
637492,-30
637500,-19
637508,-24
637516,-38
637524,-44
637532,-29
637540,-33
637548,-66
637556,-98
637564,-113
637572,-118
637580,-113
637588,-91
637596,-47
637604,-6
637612,18
637620,33
637628,57
637636,72
637644,64
637652,29
637660,-17
637668,-55
637676,-56
637684,-35
637692,-39
637700,-77
637708,-125
637716,-151
637724,-157
637732,-168
637740,-192
637748,-206
637756,-200
637764,-193
637772,-182
637780,-162
637788,-128
637796,-96
637804,-74
637812,-68
637820,-70
637828,-63
637836,-50
637844,-46
637852,-54
637860,-68
637868,-69
637876,-50
637884,-24
637892,-12
637900,-28
637908,-47
637916,-61
637924,-60
637932,-31
637940,12
637948,3
637956,-140
637964,-239
637972,162
637980,1043
637988,1567
637996,1030
638004,-194
638012,-1077
638020,-1125
638028,-748
638036,-488
638044,-407
638052,-314
638060,-225
638068,-188
638076,-158
638084,-139
638092,-126
638100,-111
638108,-96
638116,-87
638124,-80
638132,-75
638140,-67
638148,-51
638156,-37
638164,-31
638172,-32
638180,-25
638188,-21
638196,-15
638204,-15
638212,-15
638220,-13
638228,2
638236,9
638244,5
638252,-9
638260,-29
638268,-61
638276,-106
638284,-163
638292,-209
638300,-228
638308,-214
638316,-187
638324,-162
638332,-147
638340,-127
638348,-110
638356,-104
638364,-118
638372,-130
638380,-122
638388,-97
638396,-76
638404,-77
638412,-93
638420,-101
638428,-96
638436,-78
638444,-63
638452,-71
638460,-92
638468,-104
638476,-97
638484,-82
638492,-78
638500,-88
638508,-94
638516,-93
638524,-81
638532,-72
638540,-69
638548,-73
638556,-76
638564,-84
638572,-86
638580,-84
638588,-79
638596,-75
638604,-67
638612,-64
638620,-67
638628,-68
638636,-63
638644,-58
638652,-56
638660,-62
638668,-73
638676,-83
638684,-78
638692,-71
638700,-59
638708,-56
638716,-57
638724,-60
638732,-57
638740,-61
638748,-57
638756,-42
638764,-20
638772,-13
638780,-26
638788,-50
638796,-57
638804,-53
638812,-48
638820,-32
638828,10
638836,1
638844,-142
638852,-197
638860,302
638868,1218
638876,1624
638884,926
638892,-327
638900,-1070
638908,-970
638916,-574
638924,-381
638932,-334
638940,-235
638948,-135
638956,-85
638964,-52
638972,-37
638980,-34
638988,-27
638996,-17
639004,-2
639012,7
639020,2
639028,-9
639036,-14
639044,3
639052,22
639060,29
639068,21
639076,6
639084,10
639092,34
639100,56
639108,54
639116,41
639124,37
639132,44
639140,39
639148,0
639156,-57
639164,-113
639172,-153
639180,-172
639188,-169
639196,-155
639204,-137
639212,-113
639220,-86
639228,-63
639236,-52
639244,-50
639252,-55
639260,-55
639268,-50
639276,-39
639284,-29
639292,-26
639300,-24
639308,-22
639316,-28
639324,-38
639332,-53
639340,-60
639348,-54
639356,-43
639364,-41
639372,-50
639380,-63
639388,-64
639396,-50
639404,-39
639412,-39
639420,-47
639428,-53
639436,-50
639444,-38
639452,-34
639460,-37
639468,-48
639476,-52
639484,-50
639492,-46
639500,-46
639508,-48
639516,-40
639524,-37
639532,-47
639540,-60
639548,-61
639556,-48
639564,-33
639572,-39
639580,-52
639588,-60
639596,-59
639604,-65
639612,-73
639620,-72
639628,-54
639636,-28
639644,-24
639652,-41
639660,-62
639668,-74
639676,-71
639684,-68
639692,-44
639700,-6
639708,-27
639716,-171
639724,-238
639732,216
639740,1128
639748,1632
639756,1038
639764,-228
639772,-1112
639780,-1126
639788,-722
639796,-463
639804,-392
639812,-307
639820,-208
639828,-152
639836,-110
639844,-89
639852,-80
639860,-79
639868,-78
639876,-76
639884,-63
639892,-48
639900,-39
639908,-41
639916,-41
639924,-35
639932,-23
639940,-15
639948,-7
639956,-2
639964,0
639972,-3
639980,-1
639988,7
639996,11
640004,12
640012,7
640020,-13
640028,-55
640036,-108
640044,-153
640052,-175
640060,-178
640068,-171
640076,-160
640084,-140
640092,-120
640100,-104
640108,-88
640116,-79
640124,-75
640132,-68
640140,-64
640148,-70
640156,-80
640164,-85
640172,-83
640180,-71
640188,-46
640196,-17
640204,-1
640212,-11
640220,-34
640228,-54
640236,-69
640244,-86
640252,-100
640260,-115
640268,-118
640276,-107
640284,-96
640292,-93
640300,-91
640308,-86
640316,-72
640324,-57
640332,-52
640340,-47
640348,-33
640356,-20
640364,-22
640372,-27
640380,-34
640388,-44
640396,-57
640404,-63
640412,-54
640420,-40
640428,-40
640436,-58
640444,-79
640452,-86
640460,-78
640468,-61
640476,-48
640484,-50
640492,-62
640500,-75
640508,-77
640516,-71
640524,-54
640532,-30
640540,-9
640548,-9
640556,-33
640564,-60
640572,-72
640580,-72
640588,-65
640596,-30
640604,-4
640612,-71
640620,-227
640628,-94
640636,638
640644,1470
640652,1464
640660,436
640668,-747
640676,-1197
640684,-928
640692,-554
640700,-406
640708,-337
640716,-244
640724,-182
640732,-147
640740,-108
640748,-80
640756,-70
640764,-71
640772,-70
640780,-58
640788,-47
640796,-50
640804,-50
640812,-41
640820,-29
640828,-26
640836,-27
640844,-23
640852,-19
640860,-15
640868,-8
640876,8
640884,24
640892,25
640900,16
640908,4
640916,-9
640924,-31
640932,-70
640940,-118
640948,-154
640956,-175
640964,-173
640972,-161
640980,-149
640988,-140
640996,-118
641004,-101
641012,-97
641020,-102
641028,-103
641036,-104
641044,-101
641052,-93
641060,-85
641068,-84
641076,-95
641084,-102
641092,-96
641100,-88
641108,-88
641116,-95
641124,-97
641132,-94
641140,-90
641148,-87
641156,-81
641164,-76
641172,-74
641180,-75
641188,-82
641196,-90
641204,-86
641212,-78
641220,-70
641228,-65
641236,-62
641244,-61
641252,-68
641260,-80
641268,-77
641276,-60
641284,-54
641292,-60
641300,-57
641308,-29
641316,-4
641324,-18
641332,-46
641340,-52
641348,-28
641356,58
641364,156
641372,149
641380,28
641388,-46
641396,13
641404,98
641412,39
641420,-159
641428,-274
641436,-195
641444,-75
641452,-42
641460,-85
641468,-120
641476,-92
641484,-37
641492,-12
641500,0
641508,27
641516,70
641524,133
641532,178
641540,105
641548,-45
641556,104
641564,772
641572,1413
641580,1243
641588,259
641596,-689
641604,-928
641612,-639
641620,-369
641628,-276
641636,-214
641644,-141
641652,-109
641660,-75
641668,-8
641676,57
641684,72
641692,41
641700,3
641708,-3
641716,12
641724,30
641732,40
641740,44
641748,39
641756,23
641764,14
641772,23
641780,26
641788,22
641796,22
641804,34
641812,52
641820,63
641828,58
641836,48
641844,31
641852,-4
641860,-56
641868,-117
641876,-174
641884,-209
641892,-230
641900,-231
641908,-209
641916,-184
641924,-166
641932,-154
641940,-152
641948,-152
641956,-152
641964,-138
641972,-118
641980,-113
641988,-125
641996,-143
642004,-169
642012,-191
642020,-210
642028,-248
642036,-305
642044,-352
642052,-352
642060,-327
642068,-317
642076,-341
642084,-372
642092,-391
642100,-412
642108,-451
642116,-486
642124,-484
642132,-438
642140,-389
642148,-371
642156,-384
642164,-375
642172,-329
642180,-278
642188,-241
642196,-223
642204,-215
642212,-203
642220,-176
642228,-151
642236,-157
642244,-185
642252,-202
642260,-179
642268,-140
642276,-133
642284,-160
642292,-192
642300,-196
642308,-181
642316,-170
642324,-162
642332,-130
642340,-105
642348,-193
642356,-272
642364,89
642372,877
642380,1345
642388,875
642396,-190
642404,-911
642412,-885
642420,-535
642428,-339
642436,-296
642444,-223
642452,-139
642460,-96
642468,-68
642476,-61
642484,-59
642492,-47
642500,-37
642508,-42
642516,-51
642524,-52
642532,-43
642540,-35
642548,-37
642556,-42
642564,-33
642572,-21
642580,-28
642588,-47
642596,-51
642604,-32
642612,-6
642620,4
642628,1
642636,-18
642644,-38
642652,-64
642660,-91
642668,-133
642676,-171
642684,-198
642692,-200
642700,-179
642708,-152
642716,-138
642724,-130
642732,-128
642740,-111
642748,-79
642756,-46
642764,-20
642772,0
642780,17
642788,35
642796,45
642804,50
642812,53
642820,59
642828,73
642836,94
642844,119
642852,129
642860,127
642868,129
642876,141
642884,149
642892,142
642900,139
642908,144
642916,147
642924,120
642932,67
642940,24
642948,24
642956,63
642964,97
642972,102
642980,82
642988,63
642996,57
643004,48
643012,26
643020,10
643028,3
643036,-10
643044,-11
643052,9
643060,-13
643068,-148
643076,-243
643084,166
643092,1102
643100,1741
643108,1302
643116,75
643124,-882
643132,-1011
643140,-642
643148,-350
643156,-286
643164,-193
643172,-3
643180,110
643188,53
643196,-52
643204,59
643212,430
643220,741
643228,637
643236,177
643244,-246
643252,-395
643260,-300
643268,-128
643276,-36
643284,-58
643292,-117
643300,-149
643308,-137
643316,-94
643324,-45
643332,-1
643340,56
643348,103
643356,107
643364,86
643372,52
643380,20
643388,-14
643396,-39
643404,-59
643412,-63
643420,-49
643428,-16
643436,10
643444,-4
643452,-23
643460,-2
643468,17
643476,-13
643484,-75
643492,-96
643500,-74
643508,-53
643516,-50
643524,-40
643532,-11
643540,-5
643548,-14
643556,-14
643564,2
643572,-2
643580,-14
643588,-6
643596,15
643604,33
643612,26
643620,0
643628,-15
643636,-17
643644,-10
643652,-7
643660,-30
643668,-77
643676,-101
643684,-79
643692,-66
643700,-87
643708,-101
643716,-86
643724,-135
643732,-195
643740,70
643748,748
643756,1243
643764,915
643772,-53
643780,-818
643788,-889
643796,-571
643804,-353
643812,-303
643820,-244
643828,-166
643836,-128
643844,-115
643852,-106
643860,-92
643868,-75
643876,-68
643884,-68
643892,-78
643900,-103
643908,-119
643916,-110
643924,-82
643932,-66
643940,-64
643948,-64
643956,-71
643964,-69
643972,-41
643980,-5
643988,12
643996,-17
644004,-65
644012,-97
644020,-95
644028,-88
644036,-105
644044,-140
644052,-170
644060,-176
644068,-151
644076,-139
644084,-134
644092,-134
644100,-121
644108,-97
644116,-79
644124,-74
644132,-79
644140,-78
644148,-74
644156,-76
644164,-83
644172,-95
644180,-95
644188,-88
644196,-111
644204,-135
644212,-127
644220,-97
644228,-61
644236,-47
644244,-54
644252,-59
644260,-55
644268,-53
644276,-61
644284,-77
644292,-97
644300,-93
644308,-67
644316,-48
644324,-53
644332,-72
644340,-90
644348,-104
644356,-106
644364,-96
644372,-69
644380,-52
644388,-125
644396,-257
644404,-107
644412,521
644420,1144
644428,1036
644436,160
644444,-724
644452,-958
644460,-680
644468,-404
644476,-313
644484,-263
644492,-194
644500,-158
644508,-135
644516,-114
644524,-98
644532,-91
644540,-92
644548,-89
644556,-85
644564,-87
644572,-97
644580,-116
644588,-151
644596,-192
644604,-222
644612,-233
644620,-244
644628,-267
644636,-298
644644,-288
644652,-233
644660,-157
644668,-109
644676,-95
644684,-99
644692,-104
644700,-122
644708,-150
644716,-178
644724,-197
644732,-221
644740,-245
644748,-262
644756,-255
644764,-238
644772,-224
644780,-217
644788,-203
644796,-177
644804,-153
644812,-138
644820,-137
644828,-136
644836,-123
644844,-98
644852,-83
644860,-81
644868,-84
644876,-80
644884,-80
644892,-81
644900,-88
644908,-84
644916,-81
644924,-82
644932,-99
644940,-120
644948,-137
644956,-149
644964,-162
644972,-171
644980,-176
644988,-173
644996,-173
645004,-178
645012,-184
645020,-185
645028,-183
645036,-173
645044,-161
645052,-165
645060,-179
645068,-187
645076,-193
645084,-198
645092,-184
645100,-154
645108,-174
645116,-319
645124,-362
645132,142
645140,1022
645148,1384
645156,686
645164,-527
645172,-1239
645180,-1147
645188,-765
645196,-566
645204,-522
645212,-450
645220,-373
645228,-337
645236,-299
645244,-281
645252,-268
645260,-259
645268,-254
645276,-250
645284,-246
645292,-246
645300,-246
645308,-249
645316,-257
645324,-265
645332,-260
645340,-249
645348,-241
645356,-247
645364,-248
645372,-246
645380,-241
645388,-249
645396,-265
645404,-275
645412,-278
645420,-293
645428,-320
645436,-359
645444,-392
645452,-404
645460,-395
645468,-381
645476,-369
645484,-356
645492,-332
645500,-307
645508,-298
645516,-301
645524,-310
645532,-315
645540,-314
645548,-308
645556,-305
645564,-307
645572,-315
645580,-322
645588,-321
645596,-316
645604,-311
645612,-312
645620,-308
645628,-300
645636,-293
645644,-298
645652,-300
645660,-289
645668,-266
645676,-255
645684,-255
645692,-269
645700,-280
645708,-266
645716,-255
645724,-254
645732,-238
645740,-211
645748,-260
645756,-405
645764,-307
645772,417
645780,1324
645788,1433
645796,419
645804,-857
645812,-1388
645820,-1129
645828,-737
645836,-588
645844,-521
645852,-394
645860,-302
645868,-257
645876,-231
645884,-217
645892,-199
645900,-195
645908,-198
645916,-191
645924,-176
645932,-172
645940,-176
645948,-178
645956,-176
645964,-168
645972,-163
645980,-155
645988,-142
645996,-122
646004,-106
646012,-91
646020,-80
646028,-86
646036,-99
646044,-124
646052,-160
646060,-211
646068,-265
646076,-293
646084,-279
646092,-242
646100,-211
646108,-202
646116,-185
646124,-160
646132,-130
646140,-119
646148,-126
646156,-130
646164,-123
646172,-110
646180,-92
646188,-81
646196,-86
646204,-105
646212,-105
646220,-87
646228,-68
646236,-57
646244,-55
646252,-42
646260,-10
646268,29
646276,52
646284,78
646292,103
646300,131
646308,169
646316,196
646324,227
646332,287
646340,314
646348,204
646356,47
646364,299
646372,1194
646380,2026
646388,1836
646396,633
646404,-534
646412,-829
646420,-462
646428,-99
646436,20
646444,102
646452,214
646460,265
646468,285
646476,310
646484,338
646492,362
646500,363
646508,346
646516,325
646524,301
646532,275
646540,278
646548,318
646556,379
646564,427
646572,442
646580,439
646588,432
646596,418
646604,394
646612,369
646620,353
646628,352
646636,352
646644,336
646652,300
646660,255
646668,217
646676,193
646684,192
646692,200
646700,208
646708,218
646716,232
646724,251
646732,268
646740,274
646748,267
646756,255
646764,240
646772,216
646780,195
646788,171
646796,169
646804,186
646812,204
646820,210
646828,212
646836,207
646844,193
646852,178
646860,165
646868,151
646876,135
646884,127
646892,124
646900,138
646908,153
646916,167
646924,172
646932,165
646940,147
646948,123
646956,97
646964,78
646972,74
646980,73
646988,74
646996,67
647004,66
647012,80
647020,109
647028,129
647036,134
647044,119
647052,106
647060,100
647068,117
647076,144
647084,165
647092,172
647100,162
647108,143
647116,161
647124,182
647132,124
647140,-51
647148,-38
647156,593
647164,1573
647172,1885
647180,997
647188,-397
647196,-1183
647204,-1069
647212,-639
647220,-413
647228,-346
647236,-245
647244,-151
647252,-108
647260,-72
647268,-50
647276,-39
647284,-23
647292,-8
647300,5
647308,20
647316,30
647324,41
647332,51
647340,62
647348,63
647356,42
647364,16
647372,-15
647380,-47
647388,-58
647396,-44
647404,-12
647412,9
647420,6
647428,-1
647436,-5
647444,-25
647452,-75
647460,-116
647468,-134
647476,-129
647484,-115
647492,-106
647500,-104
647508,-100
647516,-84
647524,-77
647532,-79
647540,-91
647548,-96
647556,-93
647564,-83
647572,-76
647580,-69
647588,-64
647596,-73
647604,-98
647612,-119
647620,-129
647628,-133
647636,-129
647644,-112
647652,-85
647660,-49
647668,-25
647676,-16
647684,-5
647692,19
647700,49
647708,86
647716,109
647724,113
647732,88
647740,55
647748,22
647756,7
647764,-9
647772,-26
647780,-55
647788,-86
647796,-116
647804,-137
647812,-150
647820,-161
647828,-168
647836,-168
647844,-160
647852,-150
647860,-136
647868,-121
647876,-104
647884,-87
647892,-72
647900,-66
647908,-64
647916,-69
647924,-69
647932,-61
647940,-41
647948,-21
647956,-10
647964,-23
647972,-46
647980,-56
647988,-64
647996,-65
648004,-33
648012,-17
648020,-99
648028,-246
648036,-71
648044,727
648052,1573
648060,1504
648068,376
648076,-862
648084,-1291
648092,-979
648100,-585
648108,-444
648116,-379
648124,-270
648132,-196
648140,-155
648148,-122
648156,-108
648164,-99
648172,-95
648180,-92
648188,-82
648196,-64
648204,-54
648212,-47
648220,-52
648228,-56
648236,-56
648244,-46
648252,-38
648260,-32
648268,-22
648276,-5
648284,10
648292,7
648300,-4
648308,-10
648316,-13
648324,-21
648332,-48
648340,-91
648348,-139
648356,-175
648364,-195
648372,-193
648380,-175
648388,-147
648396,-128
648404,-121
648412,-120
648420,-119
648428,-116
648436,-109
648444,-101
648452,-94
648460,-94
648468,-98
648476,-94
648484,-84
648492,-70
648500,-63
648508,-52
648516,-53
648524,-61
648532,-70
648540,-69
648548,-70
648556,-74
648564,-81
648572,-83
648580,-84
648588,-76
648596,-73
648604,-61
648612,-52
648620,-51
648628,-57
648636,-63
648644,-67
648652,-72
648660,-79
648668,-82
648676,-80
648684,-76
648692,-72
648700,-70
648708,-73
648716,-75
648724,-72
648732,-70
648740,-70
648748,-71
648756,-72
648764,-76
648772,-79
648780,-80
648788,-79
648796,-83
648804,-84
648812,-83
648820,-80
648828,-82
648836,-92
648844,-99
648852,-91
648860,-68
648868,-48
648876,-47
648884,-70
648892,-92
648900,-90
648908,-84
648916,-71
648924,-39
648932,-32
648940,-141
648948,-260
648956,44
648964,912
648972,1610
648980,1278
648988,49
648996,-1025
649004,-1227
649012,-845
649020,-509
649028,-410
649036,-338
649044,-239
649052,-181
649060,-133
649068,-98
649076,-88
649084,-86
649092,-78
649100,-67
649108,-55
649116,-53
649124,-50
649132,-51
649140,-45
649148,-37
649156,-28
649164,-27
649172,-24
649180,-22
649188,-13
649196,-1
649204,11
649212,14
649220,14
649228,11
649236,5
649244,-9
649252,-43
649260,-87
649268,-121
649276,-148
649284,-167
649292,-175
649300,-147
649308,-58
649316,1
649324,-10
649332,63
649340,401
649348,861
649356,1037
649364,691
649372,66
649380,-386
649388,-478
649396,-378
649404,-276
649412,-237
649420,-222
649428,-191
649436,-148
649444,-119
649452,-106
649460,-91
649468,-62
649476,-32
649484,-9
649492,8
649500,8
649508,11
649516,18
649524,29
649532,35
649540,24
649548,0
649556,-9
649564,-2
649572,4
649580,5
649588,-4
649596,-3
649604,2
649612,-2
649620,-9
649628,-6
649636,-10
649644,-18
649652,-21
649660,-13
649668,-4
649676,-10
649684,-22
649692,-34
649700,-33
649708,-19
649716,10
649724,32
649732,18
649740,-23
649748,-63
649756,-77
649764,-88
649772,-99
649780,-82
649788,-46
649796,-104
649804,-260
649812,-163
649820,460
649828,1159
649836,1128
649844,235
649852,-739
649860,-1062
649868,-816
649876,-527
649884,-422
649892,-358
649900,-261
649908,-194
649916,-164
649924,-146
649932,-127
649940,-108
649948,-94
649956,-97
649964,-97
649972,-84
649980,-61
649988,-49
649996,-54
650004,-56
650012,-38
650020,-21
650028,-21
650036,-39
650044,-50
650052,-36
650060,-13
650068,-3
650076,-5
650084,-18
650092,-43
650100,-58
650108,-64
650116,-74
650124,-98
650132,-137
650140,-164
650148,-168
650156,-151
650164,-129
650172,-117
650180,-119
650188,-120
650196,-110
650204,-101
650212,-100
650220,-110
650228,-130
650236,-137
650244,-135
650252,-133
650260,-128
650268,-128
650276,-129
650284,-128
650292,-128
650300,-131
650308,-126
650316,-128
650324,-150
650332,-174
650340,-171
650348,-138
650356,-93
650364,-80
650372,-104
650380,-133
650388,-113
650396,-66
650404,-53
650412,-115
650420,-192
650428,-220
650436,-183
650444,-136
650452,-113
650460,-99
650468,-82
650476,-88
650484,-132
650492,-165
650500,-161
650508,-116
650516,-71
650524,-63
650532,-110
650540,-180
650548,-233
650556,-273
650564,-303
650572,-308
650580,-301
650588,-345
650596,-455
650604,-329
650612,344
650620,1156
650628,1260
650636,402
650644,-674
650652,-1124
650660,-891
650668,-528
650676,-362
650684,-299
650692,-229
650700,-178
650708,-146
650716,-123
650724,-131
650732,-161
650740,-183
650748,-177
650756,-154
650764,-140
650772,-123
650780,-96
650788,-56
650796,-23
650804,-2
650812,11
650820,25
650828,38
650836,54
650844,71
650852,80
650860,72
650868,57
650876,53
650884,52
650892,29
650900,-24
650908,-75
650916,-102
650924,-113
650932,-114
650940,-100
650948,-81
650956,-71
650964,-66
650972,-64
650980,-51
650988,-34
650996,-23
651004,-23
651012,-30
651020,-45
651028,-55
651036,-53
651044,-46
651052,-36
651060,-31
651068,-31
651076,-27
651084,-22
651092,-18
651100,-19
651108,-20
651116,-22
651124,-20
651132,-9
651140,2
651148,-2
651156,-19
651164,-31
651172,-29
651180,-12
651188,3
651196,1
651204,-20
651212,-32
651220,-26
651228,-4
651236,12
651244,1
651252,-30
651260,-60
651268,-65
651276,-62
651284,-47
651292,-10
651300,-3
651308,-120
651316,-264
651324,9
651332,854
651340,1541
651348,1235
651356,68
651364,-944
651372,-1127
651380,-772
651388,-479
651396,-394
651404,-313
651412,-207
651420,-153
651428,-119
651436,-93
651444,-81
651452,-72
651460,-65
651468,-57
651476,-51
651484,-44
651492,-29
651500,-10
651508,2
651516,-3
651524,-10
651532,-2
651540,14
651548,22
651556,25
651564,29
651572,36
651580,44
651588,36
651596,22
651604,9
651612,-12
651620,-47
651628,-90
651636,-126
651644,-139
651652,-129
651660,-113
651668,-97
651676,-89
651684,-81
651692,-70
651700,-61
651708,-56
651716,-54
651724,-51
651732,-44
651740,-39
651748,-44
651756,-52
651764,-60
651772,-64
651780,-64
651788,-59
651796,-45
651804,-37
651812,-44
651820,-42
651828,-28
651836,-16
651844,-32
651852,-68
651860,-87
651868,-73
651876,-42
651884,-23
651892,-19
651900,-26
651908,-25
651916,-17
651924,-8
651932,-14
651940,-35
651948,-52
651956,-51
651964,-46
651972,-57
651980,-44
651988,-5
651996,-16
652004,-162
652012,-213
652020,281
652028,1159
652036,1531
652044,832
652052,-391
652060,-1117
652068,-1028
652076,-640
652084,-420
652092,-332
652100,-247
652108,-200
652116,-150
652124,-27
652132,88
652140,77
652148,-34
652156,-138
652164,-162
652172,-139
652180,-96
652188,-26
652196,47
652204,80
652212,84
652220,86
652228,98
652236,101
652244,100
652252,101
652260,107
652268,104
652276,96
652284,101
652292,117
652300,95
652308,27
652316,-47
652324,-78
652332,-55
652340,-11
652348,5
652356,-3
652364,-19
652372,-37
652380,-47
652388,-34
652396,-21
652404,-17
652412,-24
652420,-32
652428,-39
652436,-43
652444,-54
652452,-61
652460,-73
652468,-96
652476,-125
652484,-136
652492,-136
652500,-153
652508,-180
652516,-197
652524,-203
652532,-202
652540,-215
652548,-249
652556,-287
652564,-319
652572,-325
652580,-313
652588,-309
652596,-332
652604,-339
652612,-316
652620,-301
652628,-312
652636,-300
652644,-301
652652,-388
652660,-408
652668,11
652676,752
652684,1088
652692,547
652700,-424
652708,-973
652716,-857
652724,-524
652732,-357
652740,-306
652748,-226
652756,-141
652764,-82
652772,-37
652780,-17
652788,-2
652796,19
652804,39
652812,48
652820,43
652828,42
652836,43
652844,41
652852,28
652860,25
652868,36
652876,43
652884,24
652892,1
652900,-20
652908,-25
652916,-20
652924,-6
652932,1
652940,-4
652948,-24
652956,-56
652964,-95
652972,-124
652980,-139
652988,-142
652996,-135
653004,-115
653012,-92
653020,-80
653028,-73
653036,-56
653044,-38
653052,-32
653060,-42
653068,-53
653076,-55
653084,-47
653092,-33
653100,-24
653108,-25
653116,-27
653124,-21
653132,-11
653140,-16
653148,-36
653156,-53
653164,-50
653172,-33
653180,-26
653188,-26
653196,-12
653204,3
653212,-4
653220,-46
653228,-87
653236,-95
653244,-85
653252,-86
653260,-73
653268,-37
653276,-61
653284,-202
653292,-162
653300,432
653308,1240
653316,1384
653324,545
653332,-565
653340,-1053
653348,-839
653356,-483
653364,-343
653372,-293
653380,-211
653388,-152
653396,-115
653404,-76
653412,-59
653420,-52
653428,-55
653436,-52
653444,-44
653452,-38
653460,-32
653468,-28
653476,-22
653484,-7
653492,6
653500,10
653508,4
653516,2
653524,10
653532,24
653540,21
653548,8
653556,-14
653564,-16
653572,-11
653580,-20
653588,-54
653596,-94
653604,-115
653612,-110
653620,-103
653628,-94
653636,-91
653644,-87
653652,-82
653660,-72
653668,-62
653676,-58
653684,-51
653692,-48
653700,-45
653708,-45
653716,-45
653724,-45
653732,-46
653740,-47
653748,-51
653756,-51
653764,-53
653772,-51
653780,-51
653788,-58
653796,-61
653804,-64
653812,-64
653820,-64
653828,-68
653836,-54
653844,-32
653852,-21
653860,-34
653868,-53
653876,-61
653884,-53
653892,-45
653900,-32
653908,1
653916,9
653924,-105
653932,-204
653940,134
653948,934
653956,1443
653964,992
653972,-117
653980,-929
653988,-971
653996,-620
654004,-392
654012,-331
654020,-260
654028,-184
654036,-148
654044,-117
654052,-87
654060,-72
654068,-68
654076,-70
654084,-65
654092,-54
654100,-44
654108,-40
654116,-38
654124,-30
654132,-24
654140,-30
654148,-30
654156,-29
654164,-30
654172,-30
654180,-28
654188,-25
654196,-26
654204,-24
654212,-30
654220,-44
654228,-59
654236,-75
654244,-93
654252,-112
654260,-127
654268,-125
654276,-117
654284,-107
654292,-97
654300,-84
654308,-67
654316,-52
654324,-47
654332,-53
654340,-57
654348,-56
654356,-45
654364,-38
654372,-37
654380,-40
654388,-46
654396,-50
654404,-45
654412,-37
654420,-44
654428,-67
654436,-79
654444,-77
654452,-67
654460,-65
654468,-69
654476,-78
654484,-84
654492,-88
654500,-82
654508,-78
654516,-87
654524,-97
654532,-98
654540,-81
654548,-62
654556,-55
654564,-68
654572,-88
654580,-103
654588,-98
654596,-94
654604,-92
654612,-78
654620,-57
654628,-116
654636,-254
654644,-114
654652,538
654660,1203
654668,1104
654676,190
654684,-732
654692,-979
654700,-707
654708,-443
654716,-364
654724,-304
654732,-222
654740,-177
654748,-147
654756,-118
654764,-102
654772,-91
654780,-85
654788,-75
654796,-64
654804,-55
654812,-43
654820,-43
654828,-51
654836,-53
654844,-43
654852,-34
654860,-39
654868,-52
654876,-53
654884,-39
654892,-24
654900,-27
654908,-42
654916,-52
654924,-52
654932,-55
654940,-71
654948,-93
654956,-113
654964,-127
654972,-126
654980,-125
654988,-111
654996,-81
655004,-38
655012,-28
655020,-64
655028,-85
655036,-56
655044,9
655052,47
655060,29
655068,-5
655076,-40
655084,-103
655092,-183
655100,-207
655108,-136
655116,-50
655124,-10
655132,-36
655140,-69
655148,-81
655156,-97
655164,-118
655172,-142
655180,-149
655188,-133
655196,-119
655204,-116
655212,-132
655220,-151
655228,-161
655236,-157
655244,-155
655252,-154
655260,-144
655268,-117
655276,-91
655284,-78
655292,-89
655300,-101
655308,-110
655316,-113
655324,-120
655332,-99
655340,-64
655348,-101
655356,-264
655364,-262
655372,289
655380,1102
655388,1304
655396,538
655404,-542
655412,-1042
655420,-862
655428,-533
655436,-416
655444,-389
655452,-302
655460,-222
655468,-165
655476,-103
655484,-79
655492,-91
655500,-93
655508,-64
655516,-29
655524,-19
655532,-31
655540,-31
655548,-15
655556,15
655564,36
655572,48
655580,50
655588,38
655596,41
655604,53
655612,53
655620,28
655628,6
655636,-2
655644,-2
655652,-16
655660,-42
655668,-95
655676,-132
655684,-140
655692,-115
655700,-94
655708,-92
655716,-104
655724,-100
655732,-77
655740,-48
655748,-36
655756,-48
655764,-71
655772,-103
655780,-126
655788,-138
655796,-136
655804,-118
655812,-97
655820,-70
655828,-34
655836,1
655844,22
655852,18
655860,6
655868,6
655876,10
655884,15
655892,33
655900,63
655908,61
655916,20
655924,-31
655932,-44
655940,-47
655948,-70
655956,-101
655964,-106
655972,-80
655980,-50
655988,-43
655996,-57
656004,-76
656012,-73
656020,-62
656028,-69
656036,-60
656044,-15
656052,-18
656060,-160
656068,-216
656076,286
656084,1201
656092,1618
656100,934
656108,-308
656116,-1062
656124,-990
656132,-604
656140,-385
656148,-320
656156,-239
656164,-173
656172,-147
656180,-110
656188,-71
656196,-48
656204,-37
656212,-39
656220,-39
656228,-35
656236,-24
656244,-25
656252,-30
656260,-25
656268,-9
656276,9
656284,20
656292,29
656300,35
656308,30
656316,31
656324,48
656332,82
656340,90
656348,32
656356,-86
656364,-225
656372,-308
656380,-290
656388,-217
656396,-170
656404,-138
656412,-104
656420,-89
656428,-57
656436,17
656444,94
656452,131
656460,98
656468,31
656476,11
656484,23
656492,23
656500,36
656508,60
656516,63
656524,55
656532,42
656540,27
656548,30
656556,45
656564,15
656572,-87
656580,-197
656588,-241
656596,-228
656604,-249
656612,-354
656620,-465
656628,-533
656636,-549
656644,-543
656652,-512
656660,-416
656668,-271
656676,-140
656684,-18
656692,127
656700,252
656708,286
656716,234
656724,216
656732,273
656740,320
656748,299
656756,270
656764,301
656772,343
656780,308
656788,241
656796,208
656804,172
656812,250
656820,634
656828,1081
656836,1029
656844,338
656852,-459
656860,-759
656868,-558
656876,-305
656884,-227
656892,-176
656900,-104
656908,-65
656916,-43
656924,-22
656932,-13
656940,-18
656948,-26
656956,-43
656964,-26
656972,65
656980,152
656988,85
656996,-113
657004,-254
657012,-201
657020,-43
657028,49
657036,27
657044,-17
657052,-23
657060,-11
657068,-48
657076,-95
657084,-38
657092,96
657100,86
657108,-151
657116,-394
657124,-422
657132,-260
657140,-111
657148,-81
657156,-94
657164,-123
657172,-167
657180,-188
657188,-164
657196,-126
657204,-111
657212,-111
657220,-110
657228,-108
657236,-110
657244,-118
657252,-126
657260,-122
657268,-118
657276,-124
657284,-137
657292,-151
657300,-163
657308,-112
657316,5
657324,23
657332,-170
657340,-385
657348,-359
657356,-154
657364,-29
657372,-95
657380,-182
657388,-147
657396,-65
657404,-49
657412,-87
657420,-121
657428,-134
657436,-123
657444,-94
657452,-68
657460,-42
657468,-29
657476,-115
657484,-223
657492,8
657500,639
657508,1078
657516,756
657524,-115
657532,-780
657540,-846
657548,-569
657556,-327
657564,-236
657572,-224
657580,-251
657588,-231
657596,-113
657604,-23
657612,-55
657620,-129
657628,-146
657636,-137
657644,-139
657652,-132
657660,-103
657668,-68
657676,-39
657684,-7
657692,29
657700,37
657708,6
657716,-29
657724,-28
657732,0
657740,18
657748,7
657756,-6
657764,-10
657772,-34
657780,-73
657788,-125
657796,-177
657804,-210
657812,-225
657820,-234
657828,-264
657836,-293
657844,-288
657852,-240
657860,-188
657868,-180
657876,-208
657884,-230
657892,-236
657900,-246
657908,-251
657916,-233
657924,-204
657932,-198
657940,-216
657948,-238
657956,-236
657964,-219
657972,-193
657980,-187
657988,-189
657996,-206
658004,-220
658012,-225
658020,-217
658028,-207
658036,-199
658044,-201
658052,-206
658060,-197
658068,-162
658076,-126
658084,-111
658092,-105
658100,-94
658108,-126
658116,-255
658124,-241
658132,288
658140,1063
658148,1266
658156,531
658164,-529
658172,-1030
658180,-827
658188,-454
658196,-311
658204,-289
658212,-220
658220,-128
658228,-46
658236,28
658244,63
658252,85
658260,91
658268,93
658276,112
658284,146
658292,179
658300,194
658308,190
658316,189
658324,191
658332,198
658340,195
658348,175
658356,152
658364,130
658372,116
658380,106
658388,100
658396,81
658404,67
658412,48
658420,4
658428,-53
658436,-101
658444,-110
658452,-74
658460,-23
658468,20
658476,42
658484,45
658492,40
658500,46
658508,49
658516,21
658524,-36
658532,-89
658540,-111
658548,-97
658556,-76
658564,-66
658572,-64
658580,-72
658588,-91
658596,-105
658604,-110
658612,-103
658620,-80
658628,-62
658636,-54
658644,-52
658652,-51
658660,-48
658668,-53
658676,-64
658684,-63
658692,-47
658700,-31
658708,-36
658716,-35
658724,-10
658732,-25
658740,-160
658748,-246
658756,147
658764,1028
658772,1601
658780,1169
658788,51
658796,-838
658804,-1032
658812,-765
658820,-404
658828,-96
658836,90
658844,43
658852,-144
658860,-227
658868,-181
658876,-130
658884,-118
658892,-130
658900,-148
658908,-158
658916,-149
658924,-130
658932,-107
658940,-83
658948,-65
658956,-57
658964,-42
658972,-17
658980,15
658988,32
658996,17
659004,-21
659012,-52
659020,-38
659028,-21
659036,-37
659044,-94
659052,-146
659060,-150
659068,-130
659076,-128
659084,-141
659092,-146
659100,-128
659108,-103
659116,-79
659124,-67
659132,-50
659140,-29
659148,-11
659156,3
659164,11
659172,17
659180,22
659188,31
659196,29
659204,27
659212,20
659220,8
659228,-13
659236,-29
659244,-25
659252,-6
659260,1
659268,-11
659276,-36
659284,-46
659292,-43
659300,-39
659308,-32
659316,-9
659324,5
659332,-78
659340,-248
659348,-136
659356,553
659364,1336
659372,1333
659380,369
659388,-728
659396,-1117
659404,-851
659412,-518
659420,-396
659428,-321
659436,-215
659444,-161
659452,-153
659460,-135
659468,-102
659476,-75
659484,-81
659492,-83
659500,-64
659508,-50
659516,-52
659524,-57
659532,-49
659540,-29
659548,-27
659556,-33
659564,-31
659572,-25
659580,-12
659588,-3
659596,5
659604,-12
659612,-43
659620,-63
659628,-62
659636,-70
659644,-110
659652,-165
659660,-187
659668,-174
659676,-144
659684,-129
659692,-128
659700,-130
659708,-129
659716,-119
659724,-106
659732,-94
659740,-95
659748,-107
659756,-112
659764,-104
659772,-86
659780,-79
659788,-86
659796,-94
659804,-92
659812,-89
659820,-91
659828,-103
659836,-118
659844,-125
659852,-121
659860,-102
659868,-87
659876,-94
659884,-111
659892,-122
659900,-107
659908,-89
659916,-89
659924,-120
659932,-150
659940,-157
659948,-149
659956,-141
659964,-114
659972,-77
659980,-120
659988,-276
659996,-225
660004,392
660012,1198
660020,1304
660028,429
660036,-681
660044,-1139
660052,-916
660060,-576
660068,-450
660076,-397
660084,-299
660092,-232
660100,-206
660108,-160
660116,-109
660124,-89
660132,-103
660140,-129
660148,-137
660156,-130
660164,-129
660172,-117
660180,-78
660188,-62
660196,-124
660204,-210
660212,-214
660220,-132
660228,-37
660236,-7
660244,-52
660252,-108
660260,-138
660268,-149
660276,-169
660284,-217
660292,-257
660300,-249
660308,-207
660316,-194
660324,-201
660332,-179
660340,-130
660348,-98
660356,-89
660364,-69
660372,-17
660380,25
660388,48
660396,65
660404,78
660412,93
660420,105
660428,107
660436,124
660444,147
660452,165
660460,165
660468,148
660476,97
660484,18
660492,-35
660500,-17
660508,43
660516,50
660524,6
660532,18
660540,73
660548,59
660556,-49
660564,-143
660572,-111
660580,-15
660588,30
660596,46
660604,73
660612,1
660620,-222
660628,-190
660636,512
660644,1409
660652,1505
660660,510
660668,-709
660676,-1180
660684,-924
660692,-590
660700,-476
660708,-404
660716,-264
660724,-156
660732,-117
660740,-113
660748,-106
660756,-85
660764,-58
660772,-30
660780,-13
660788,-13
660796,-19
660804,-19
660812,-32
660820,-52
660828,-63
660836,-51
660844,-18
660852,0
660860,-6
660868,-18
660876,-28
660884,-33
660892,-31
660900,-19
660908,-17
660916,-29
660924,-57
660932,-84
660940,-104
660948,-108
660956,-78
660964,-28
660972,4
660980,2
660988,-15
660996,-26
661004,-21
661012,-1
661020,19
661028,25
661036,22
661044,20
661052,11
661060,-7
661068,-10
661076,10
661084,23
661092,7
661100,-30
661108,-48
661116,-60
661124,-70
661132,-73
661140,-47
661148,-27
661156,-38
661164,-21
661172,49
661180,104
661188,73
661196,-18
661204,-87
661212,-87
661220,-64
661228,-20
661236,40
661244,28
661252,-139
661260,-190
661268,361
661276,1301
661284,1649
661292,851
661300,-480
661308,-1240
661316,-1122
661324,-690
661332,-464
661340,-395
661348,-293
661356,-194
661364,-141
661372,-102
661380,-79
661388,-63
661396,-56
661404,-59
661412,-44
661420,-7
661428,16
661436,-1
661444,-48
661452,-80
661460,-84
661468,-67
661476,-56
661484,-47
661492,-39
661500,-27
661508,-8
661516,1
661524,-5
661532,-23
661540,-42
661548,-52
661556,-53
661564,-64
661572,-83
661580,-102
661588,-116
661596,-118
661604,-119
661612,-129
661620,-121
661628,-97
661636,-81
661644,-82
661652,-80
661660,-71
661668,-53
661676,-37
661684,-27
661692,-23
661700,-33
661708,-48
661716,-49
661724,-38
661732,-31
661740,-35
661748,-46
661756,-62
661764,-78
661772,-82
661780,-72
661788,-73
661796,-79
661804,-78
661812,-73
661820,-70
661828,-74
661836,-75
661844,-73
661852,-69
661860,-66
661868,-63
661876,-66
661884,-73
661892,-80
661900,-83
661908,-100
661916,-104
661924,-53
661932,6
661940,-60
661948,-212
661956,-36
661964,747
661972,1527
661980,1379
661988,243
661996,-904
662004,-1214
662012,-862
662020,-501
662028,-390
662036,-323
662044,-221
662052,-162
662060,-130
662068,-98
662076,-82
662084,-93
662092,-105
662100,-90
662108,-53
662116,-31
662124,-37
662132,-44
662140,-31
662148,-16
662156,-18
662164,-33
662172,-48
662180,-47
662188,-34
662196,-27
662204,-28
662212,-40
662220,-56
662228,-61
662236,-62
662244,-75
662252,-96
662260,-119
662268,-126
662276,-120
662284,-111
662292,-101
662300,-96
662308,-96
662316,-91
662324,-82
662332,-72
662340,-66
662348,-62
662356,-61
662364,-64
662372,-66
662380,-71
662388,-75
662396,-76
662404,-77
662412,-79
662420,-78
662428,-78
662436,-84
662444,-88
662452,-86
662460,-79
662468,-68
662476,-61
662484,-57
662492,-57
662500,-58
662508,-54
662516,-52
662524,-56
662532,-58
662540,-56
662548,-48
662556,-45
662564,-48
662572,-49
662580,-41
662588,-27
662596,-24
662604,-30
662612,-43
662620,-50
662628,-49
662636,-32
662644,-13
662652,-6
662660,-18
662668,-33
662676,-38
662684,-36
662692,-49
662700,-43
662708,-12
662716,-35
662724,-171
662732,-164
662740,394
662748,1274
662756,1559
662764,772
662772,-467
662780,-1140
662788,-1004
662796,-611
662804,-408
662812,-341
662820,-242
662828,-159
662836,-125
662844,-100
662852,-92
662860,-87
662868,-78
662876,-76
662884,-73
662892,-62
662900,-49
662908,-36
662916,-30
662924,-25
662932,-25
662940,-23
662948,-22
662956,-26
662964,-35
662972,-50
662980,-56
662988,-57
662996,-62
663004,-65
663012,-61
663020,-46
663028,-37
663036,-40
663044,-50
663052,-43
663060,-29
663068,-17
663076,-16
663084,-16
663092,-18
663100,-18
663108,-22
663116,-39
663124,-58
663132,-68
663140,-75
663148,-82
663156,-79
663164,-72
663172,-63
663180,-62
663188,-74
663196,-86
663204,-90
663212,-83
663220,-77
663228,-76
663236,-77
663244,-75
663252,-71
663260,-69
663268,-70
663276,-72
663284,-75
663292,-76
663300,-73
663308,-75
663316,-77
663324,-75
663332,-72
663340,-77
663348,-83
663356,-81
663364,-72
663372,-68
663380,-70
663388,-68
663396,-51
663404,-36
663412,-42
663420,-63
663428,-80
663436,-82
663444,-81
663452,-59
663460,-23
663468,-58
663476,-206
663484,-172
663492,422
663500,1253
663508,1418
663516,564
663524,-597
663532,-1123
663540,-911
663548,-537
663556,-381
663564,-329
663572,-246
663580,-183
663588,-149
663596,-113
663604,-88
663612,-77
663620,-71
663628,-65
663636,-57
663644,-49
663652,-44
663660,-42
663668,-43
663676,-39
663684,-34
663692,-31
663700,-27
663708,-27
663716,-30
663724,-41
663732,-54
663740,-61
663748,-62
663756,-53
663764,-46
663772,-50
663780,-60
663788,-75
663796,-96
663804,-113
663812,-122
663820,-116
663828,-101
663836,-86
663844,-80
663852,-74
663860,-72
663868,-68
663876,-64
663884,-62
663892,-69
663900,-74
663908,-77
663916,-69
663924,-59
663932,-53
663940,-57
663948,-65
663956,-69
663964,-67
663972,-59
663980,-59
663988,-63
663996,-68
664004,-66
664012,-60
664020,-57
664028,-59
664036,-61
664044,-65
664052,-62
664060,-58
664068,-59
664076,-61
664084,-64
664092,-67
664100,-74
664108,-73
664116,-61
664124,-50
664132,-50
664140,-59
664148,-66
664156,-61
664164,-61
664172,-59
664180,-26
664188,-11
664196,-115
664204,-241
664212,54
664220,855
664228,1434
664236,1046
664244,-74
664252,-951
664260,-1030
664268,-670
664276,-420
664284,-363
664292,-303
664300,-221
664308,-173
664316,-139
664324,-116
664332,-105
664340,-87
664348,-73
664356,-68
664364,-67
664372,-64
664380,-53
664388,-45
664396,-39
664404,-36
664412,-26
664420,-20
664428,-22
664436,-24
664444,-22
664452,-23
664460,-28
664468,-39
664476,-39
664484,-33
664492,-14
664500,9
664508,19
664516,-4
664524,-44
664532,-84
664540,-102
664548,-114
664556,-114
664564,-103
664572,-86
664580,-81
664588,-89
664596,-98
664604,-101
664612,-102
664620,-108
664628,-115
664636,-123
664644,-132
664652,-138
664660,-137
664668,-119
664676,-103
664684,-93
664692,-83
664700,-72
664708,-67
664716,-78
664724,-97
664732,-96
664740,-72
664748,-54
664756,-50
664764,-54
664772,-53
664780,-53
664788,-61
664796,-75
664804,-90
664812,-89
664820,-77
664828,-62
664836,-58
664844,-59
664852,-55
664860,-42
664868,-51
664876,-63
664884,-39
664892,-40
664900,-135
664908,-98
664916,443
664924,1219
664932,1389
664940,577
664948,-567
664956,-1111
664964,-927
664972,-575
664980,-419
664988,-361
664996,-262
665004,-182
665012,-137
665020,-96
665028,-68
665036,-50
665044,-39
665052,-46
665060,-51
665068,-54
665076,-45
665084,-26
665092,-12
665100,-18
665108,-32
665116,-46
665124,-55
665132,-45
665140,-24
665148,-12
665156,-27
665164,-54
665172,-59
665180,-45
665188,-38
665196,-51
665204,-77
665212,-98
665220,-103
665228,-95
665236,-75
665244,-61
665252,-59
665260,-60
665268,-58
665276,-47
665284,-34
665292,-26
665300,-26
665308,-31
665316,-35
665324,-39
665332,-36
665340,-27
665348,-14
665356,-3
665364,-7
665372,-19
665380,-30
665388,-30
665396,-29
665404,-28
665412,-31
665420,-37
665428,-38
665436,-32
665444,-23
665452,-26
665460,-31
665468,-30
665476,-23
665484,-29
665492,-39
665500,-50
665508,-56
665516,-57
665524,-59
665532,-72
665540,-74
665548,-48
665556,-64
665564,-196
665572,-195
665580,349
665588,1170
665596,1398
665604,619
665612,-518
665620,-1076
665628,-898
665636,-532
665644,-366
665652,-309
665660,-225
665668,-162
665676,-129
665684,-106
665692,-86
665700,-69
665708,-54
665716,-46
665724,-46
665732,-50
665740,-55
665748,-48
665756,-34
665764,-23
665772,-19
665780,-13
665788,0
665796,9
665804,2
665812,-10
665820,-19
665828,-24
665836,-34
665844,-39
665852,-44
665860,-47
665868,-61
665876,-86
665884,-109
665892,-117
665900,-114
665908,-104
665916,-93
665924,-88
665932,-93
665940,-100
665948,-113
665956,-128
665964,-138
665972,-144
665980,-150
665988,-159
665996,-155
666004,-136
666012,-112
666020,-105
666028,-114
666036,-117
666044,-108
666052,-90
666060,-82
666068,-74
666076,-71
666084,-72
666092,-82
666100,-87
666108,-87
666116,-69
666124,-43
666132,-31
666140,-42
666148,-61
666156,-65
666164,-61
666172,-56
666180,-30
666188,4
666196,-62
666204,-220
666212,-66
666220,667
666228,1407
666236,1283
666244,247
666252,-790
666260,-1057
666268,-743
666276,-453
666284,-370
666292,-305
666300,-203
666308,-140
666316,-107
666324,-87
666332,-80
666340,-71
666348,-63
666356,-61
666364,-61
666372,-53
666380,-47
666388,-43
666396,-42
666404,-35
666412,-28
666420,-22
666428,-23
666436,-28
666444,-33
666452,-37
666460,-45
666468,-52
666476,-63
666484,-69
666492,-73
666500,-81
666508,-96
666516,-108
666524,-112
666532,-112
666540,-110
666548,-100
666556,-83
666564,-72
666572,-63
666580,-53
666588,-44
666596,-41
666604,-43
666612,-52
666620,-60
666628,-56
666636,-49
666644,-51
666652,-56
666660,-56
666668,-54
666676,-54
666684,-60
666692,-62
666700,-61
666708,-66
666716,-70
666724,-64
666732,-48
666740,-31
666748,-27
666756,-36
666764,-49
666772,-55
666780,-55
666788,-61
666796,-37
666804,5
666812,-41
666820,-207
666828,-137
666836,540
666844,1386
666852,1451
666860,477
666868,-691
666876,-1125
666884,-854
666892,-495
666900,-369
666908,-313
666916,-214
666924,-149
666932,-116
666940,-85
666948,-66
666956,-54
666964,-46
666972,-40
666980,-34
666988,-39
666996,-44
667004,-41
667012,-33
667020,-18
667028,-9
667036,-3
667044,-8
667052,-12
667060,-13
667068,-12
667076,-11
667084,-14
667092,-23
667100,-25
667108,-31
667116,-43
667124,-67
667132,-87
667140,-95
667148,-83
667156,-68
667164,-64
667172,-71
667180,-75
667188,-74
667196,-64
667204,-57
667212,-54
667220,-56
667228,-54
667236,-56
667244,-53
667252,-52
667260,-51
667268,-55
667276,-56
667284,-62
667292,-64
667300,-63
667308,-60
667316,-59
667324,-62
667332,-66
667340,-62
667348,-45
667356,-30
667364,-33
667372,-52
667380,-64
667388,-67
667396,-74
667404,-75
667412,-38
667420,-8
667428,-105
667436,-247
667444,26
667452,875
667460,1561
667468,1222
667476,14
667484,-1014
667492,-1174
667500,-785
667508,-474
667516,-381
667524,-302
667532,-200
667540,-142
667548,-110
667556,-93
667564,-88
667572,-79
667580,-73
667588,-66
667596,-59
667604,-50
667612,-41
667620,-31
667628,-30
667636,-25
667644,-21
667652,-18
667660,-18
667668,-21
667676,-36
667684,-48
667692,-61
667700,-65
667708,-68
667716,-67
667724,-70
667732,-83
667740,-102
667748,-119
667756,-125
667764,-116
667772,-109
667780,-99
667788,-87
667796,-67
667804,-43
667812,-29
667820,-33
667828,-43
667836,-53
667844,-58
667852,-57
667860,-61
667868,-69
667876,-77
667884,-81
667892,-79
667900,-76
667908,-73
667916,-73
667924,-79
667932,-87
667940,-89
667948,-79
667956,-58
667964,-43
667972,-40
667980,-53
667988,-69
667996,-68
668004,-68
668012,-76
668020,-57
668028,-10
668036,-40
668044,-205
668052,-146
668060,531
668068,1426
668076,1536
668084,548
668092,-694
668100,-1198
668108,-940
668116,-547
668124,-395
668132,-331
668140,-233
668148,-163
668156,-126
668164,-94
668172,-77
668180,-70
668188,-62
668196,-57
668204,-53
668212,-46
668220,-38
668228,-27
668236,-16
668244,-9
668252,-11
668260,-20
668268,-28
668276,-27
668284,-24
668292,-33
668300,-50
668308,-58
668316,-56
668324,-55
668332,-57
668340,-74
668348,-96
668356,-108
668364,-109
668372,-100
668380,-93
668388,-89
668396,-82
668404,-70
668412,-56
668420,-47
668428,-44
668436,-48
668444,-56
668452,-58
668460,-62
668468,-59
668476,-54
668484,-47
668492,-48
668500,-45
668508,-43
668516,-44
668524,-51
668532,-62
668540,-65
668548,-65
668556,-60
668564,-60
668572,-59
668580,-59
668588,-56
668596,-57
668604,-63
668612,-68
668620,-58
668628,-40
668636,-31
668644,-40
668652,-60
668660,-72
668668,-84
668676,-93
668684,-63
668692,-7
668700,-39
668708,-194
668716,-111
668724,579
668732,1432
668740,1486
668748,467
668756,-761
668764,-1227
668772,-919
668780,-484
668788,-312
668796,-258
668804,-171
668812,-109
668820,-87
668828,-86
668836,-66
668844,-23
668852,-14
668860,-39
668868,-52
668876,-38
668884,-26
668892,-36
668900,-51
668908,-59
668916,-71
668924,-87
668932,-74
668940,-26
668948,-5
668956,-41
668964,-30
668972,65
668980,122
668988,36
668996,-113
669004,-193
669012,-148
669020,-99
669028,-136
669036,-161
669044,-68
669052,61
669060,79
669068,-11
669076,-122
669084,-137
669092,-74
669100,-58
669108,-92
669116,-78
669124,-4
669132,37
669140,-50
669148,-202
669156,-283
669164,-236
669172,-147
669180,-99
669188,-92
669196,-102
669204,-117
669212,-138
669220,-165
669228,-178
669236,-179
669244,-195
669252,-203
669260,-172
669268,-122
669276,-91
669284,-89
669292,-90
669300,-95
669308,-118
669316,-153
669324,-161
669332,-129
669340,-68
669348,-1
669356,47
669364,32
669372,-41
669380,-96
669388,-86
669396,-47
669404,-41
669412,-78
669420,-98
669428,-80
669436,-57
669444,-88
669452,-156
669460,-261
669468,-273
669476,126
669484,905
669492,1408
669500,1020
669508,-81
669516,-1000
669524,-1125
669532,-743
669540,-439
669548,-375
669556,-362
669564,-305
669572,-218
669580,-147
669588,-113
669596,-66
669604,5
669612,43
669620,52
669628,36
669636,4
669644,-19
669652,-33
669660,-33
669668,-25
669676,-29
669684,-26
669692,22
669700,82
669708,77
669716,36
669724,0
669732,-27
669740,-64
669748,-108
669756,-122
669764,-112
669772,-143
669780,-206
669788,-231
669796,-208
669804,-175
669812,-121
669820,-44
669828,18
669836,25
669844,-26
669852,-86
669860,-130
669868,-175
669876,-199
669884,-163
669892,-99
669900,-62
669908,-53
669916,-34
669924,15
669932,73
669940,111
669948,142
669956,181
669964,200
669972,179
669980,143
669988,125
669996,126
670004,118
670012,86
670020,68
670028,104
670036,147
670044,150
670052,94
670060,20
670068,-26
670076,-72
670084,-135
670092,-190
670100,-203
670108,-182
670116,-165
670124,-155
670132,-147
670140,-134
670148,-144
670156,-191
670164,-190
670172,-127
670180,-48
670188,4
670196,3
670204,-43
670212,-96
670220,-123
670228,-88
670236,-56
670244,-132
670252,-327
670260,-307
670268,261
670276,1008
670284,1165
670292,488
670300,-415
670308,-785
670316,-567
670324,-250
670332,-153
670340,-179
670348,-184
670356,-177
670364,-136
670372,-98
670380,-120
670388,-135
670396,-118
670404,-100
670412,-107
670420,-122
670428,-119
670436,-102
670444,-96
670452,-96
670460,-63
670468,9
670476,62
670484,90
670492,107
670500,141
670508,187
670516,228
670524,222
670532,169
670540,93
670548,14
670556,-83
670564,-174
670572,-230
670580,-236
670588,-215
670596,-194
670604,-196
670612,-220
670620,-242
670628,-229
670636,-183
670644,-118
670652,-66
670660,-56
670668,-42
670676,-12
670684,-1
670692,-53
670700,-157
670708,-220
670716,-184
670724,-103
670732,-70
670740,-105
670748,-126
670756,-102
670764,-73
670772,-79
670780,-117
670788,-145
670796,-141
670804,-117
670812,-94
670820,-66
670828,-30
670836,-19
670844,-55
670852,-107
670860,-121
670868,-94
670876,-57
670884,-24
670892,-7
670900,-20
670908,-43
670916,-61
670924,-74
670932,-92
670940,-97
670948,-89
670956,-71
670964,-56
670972,-34
670980,-5
670988,1
670996,-33
671004,-64
671012,-80
671020,-84
671028,-64
671036,-77
671044,-112
671052,-82
671060,-9
671068,-50
671076,-240
671084,-150
671092,577
671100,1403
671108,1358
671116,331
671124,-750
671132,-1076
671140,-791
671148,-485
671156,-395
671164,-351
671172,-261
671180,-197
671188,-155
671196,-129
671204,-129
671212,-128
671220,-127
671228,-119
671236,-100
671244,-70
671252,-52
671260,-58
671268,-62
671276,-30
671284,17
671292,31
671300,-3
671308,-39
671316,-40
671324,-7
671332,50
671340,92
671348,82
671356,8
671364,-73
671372,-110
671380,-116
671388,-105
671396,-112
671404,-127
671412,-120
671420,-97
671428,-66
671436,-54
671444,-69
671452,-90
671460,-93
671468,-75
671476,-64
671484,-49
671492,-42
671500,-45
671508,-42
671516,-30
671524,-25
671532,-27
671540,-26
671548,-23
671556,-26
671564,-40
671572,-53
671580,-57
671588,-46
671596,-35
671604,-26
671612,-23
671620,-28
671628,-34
671636,-34
671644,-37
671652,-39
671660,-41
671668,-45
671676,-59
671684,-78
671692,-77
671700,-50
671708,-16
671716,-20
671724,-51
671732,-72
671740,-69
671748,-52
671756,-55
671764,-79
671772,-99
671780,-96
671788,-76
671796,-61
671804,-54
671812,-60
671820,-59
671828,-49
671836,-50
671844,-66
671852,-58
671860,-33
671868,-38
671876,-92
671884,-126
671892,-109
671900,-66
671908,-37
671916,-14
671924,-67
671932,-197
671940,-51
671948,668
671956,1447
671964,1369
671972,309
671980,-824
671988,-1171
671996,-865
672004,-515
672012,-373
672020,-291
672028,-207
672036,-192
672044,-182
672052,-144
672060,-105
672068,-82
672076,-70
672084,-38
672092,-2
672100,1
672108,-36
672116,-72
672124,-75
672132,-45
672140,-20
672148,-23
672156,-33
672164,-5
672172,47
672180,78
672188,75
672196,45
672204,17
672212,6
672220,-14
672228,-58
672236,-116
672244,-154
672252,-151
672260,-148
672268,-176
672276,-202
672284,-190
672292,-137
672300,-88
672308,-75
672316,-79
672324,-68
672332,-52
672340,-53
672348,-75
672356,-98
672364,-102
672372,-82
672380,-67
672388,-61
672396,-50
672404,-40
672412,-36
672420,-21
672428,-6
672436,-7
672444,-46
672452,-86
672460,-92
672468,-75
672476,-77
672484,-107
672492,-123
672500,-83
672508,-30
672516,-14
672524,-45
672532,-73
672540,-87
672548,-90
672556,-95
672564,-98
672572,-101
672580,-98
672588,-85
672596,-65
672604,-55
672612,-52
672620,-66
672628,-87
672636,-108
672644,-116
672652,-111
672660,-98
672668,-80
672676,-63
672684,-47
672692,-44
672700,-69
672708,-108
672716,-133
672724,-132
672732,-106
672740,-70
672748,-50
672756,-51
672764,-75
672772,-97
672780,-106
672788,-105
672796,-75
672804,-31
672812,-64
672820,-223
672828,-259
672836,295
672844,1225
672852,1592
672860,844
672868,-428
672876,-1160
672884,-1063
672892,-667
672900,-467
672908,-402
672916,-290
672924,-182
672932,-129
672940,-105
672948,-101
672956,-100
672964,-77
672972,-51
672980,-30
672988,-32
672996,-33
673004,-15
673012,2
673020,-21
673028,-62
673036,-74
673044,-33
673052,11
673060,19
673068,7
673076,11
673084,42
673092,67
673100,61
673108,23
673116,-38
673124,-106
673132,-158
673140,-171
673148,-165
673156,-171
673164,-182
673172,-154
673180,-104
673188,-75
673196,-84
673204,-101
673212,-96
673220,-76
673228,-54
673236,-29
673244,-15
673252,-27
673260,-42
673268,-26
673276,-13
673284,-27
673292,-56
673300,-65
673308,-45
673316,-25
673324,-21
673332,-17
673340,-20
673348,-38
673356,-48
673364,-43
673372,-41
673380,-52
673388,-57
673396,-35
673404,-5
673412,-1
673420,-25
673428,-50
673436,-56
673444,-45
673452,-27
673460,-19
673468,-27
673476,-38
673484,-48
673492,-58
673500,-66
673508,-62
673516,-48
673524,-36
673532,-40
673540,-53
673548,-49
673556,-35
673564,-32
673572,-44
673580,-50
673588,-44
673596,-42
673604,-70
673612,-101
673620,-79
673628,-28
673636,-10
673644,-34
673652,-61
673660,-63
673668,-54
673676,-58
673684,-69
673692,-78
673700,-71
673708,-29
673716,-9
673724,-112
673732,-246
673740,45
673748,915
673756,1622
673764,1292
673772,63
673780,-1007
673788,-1209
673796,-832
673804,-508
673812,-396
673820,-295
673828,-183
673836,-149
673844,-147
673852,-132
673860,-105
673868,-76
673876,-57
673884,-48
673892,-33
673900,-15
673908,-11
673916,-18
673924,-37
673932,-45
673940,-25
673948,-7
673956,-1
673964,3
673972,26
673980,63
673988,91
673996,94
674004,71
674012,40
674020,-11
674028,-75
674036,-119
674044,-136
674052,-149
674060,-178
674068,-207
674076,-197
674084,-147
674092,-91
674100,-64
674108,-67
674116,-69
674124,-65
674132,-72
674140,-90
674148,-82
674156,-57
674164,-42
674172,-57
674180,-74
674188,-66
674196,-59
674204,-72
674212,-72
674220,-59
674228,-61
674236,-79
674244,-85
674252,-77
674260,-75
674268,-93
674276,-107
674284,-97
674292,-75
674300,-71
674308,-80
674316,-79
674324,-62
674332,-37
674340,-25
674348,-34
674356,-56
674364,-65
674372,-56
674380,-48
674388,-62
674396,-90
674404,-106
674412,-100
674420,-92
674428,-88
674436,-83
674444,-73
674452,-58
674460,-46
674468,-49
674476,-60
674484,-71
674492,-71
674500,-66
674508,-66
674516,-73
674524,-80
674532,-79
674540,-69
674548,-58
674556,-60
674564,-68
674572,-76
674580,-76
674588,-59
674596,-29
674604,-5
674612,-5
674620,-31
674628,-47
674636,-52
674644,-55
674652,-44
674660,-23
674668,-64
674676,-218
674684,-210
674692,377
674700,1291
674708,1589
674716,773
674724,-510
674732,-1208
674740,-1061
674748,-639
674756,-432
674764,-375
674772,-278
674780,-186
674788,-136
674796,-109
674804,-98
674812,-86
674820,-64
674828,-43
674836,-32
674844,-35
674852,-30
674860,-11
674868,8
674876,14
674884,12
674892,16
674900,19
674908,26
674916,37
674924,52
674932,60
674940,65
674948,68
674956,70
674964,61
674972,24
674980,-30
674988,-96
674996,-156
675004,-199
675012,-203
675020,-179
675028,-140
675036,-118
675044,-104
675052,-92
675060,-80
675068,-79
675076,-75
675084,-78
675092,-81
675100,-75
675108,-74
675116,-80
675124,-95
675132,-111
675140,-113
675148,-77
675156,-29
675164,12
675172,26
675180,9
675188,-30
675196,-64
675204,-76
675212,-82
675220,-102
675228,-122
675236,-94
675244,-26
675252,27
675260,15
675268,-52
675276,-99
675284,-87
675292,-41
675300,-10
675308,-14
675316,-47
675324,-80
675332,-101
675340,-97
675348,-79
675356,-62
675364,-63
675372,-83
675380,-107
675388,-114
675396,-120
675404,-126
675412,-133
675420,-131
675428,-116
675436,-97
675444,-83
675452,-72
675460,-67
675468,-72
675476,-65
675484,-38
675492,-27
675500,-46
675508,-65
675516,-70
675524,-81
675532,-112
675540,-125
675548,-92
675556,-45
675564,-11
675572,6
675580,-21
675588,-146
675596,-186
675604,293
675612,1178
675620,1601
675628,946
675636,-307
675644,-1111
675652,-1070
675660,-657
675668,-426
675676,-386
675684,-328
675692,-246
675700,-181
675708,-127
675716,-114
675724,-121
675732,-115
675740,-77
675748,-27
675756,-11
675764,-35
675772,-60
675780,-51
675788,-17
675796,-5
675804,-11
675812,-15
675820,-3
675828,15
675836,31
675844,39
675852,34
675860,23
675868,17
675876,21
675884,17
675892,-25
675900,-99
675908,-170
675916,-211
675924,-212
675932,-191
675940,-165
675948,-151
675956,-126
675964,-88
675972,-57
675980,-55
675988,-80
675996,-101
676004,-99
676012,-78
676020,-55
676028,-44
676036,-39
676044,-41
676052,-41
676060,-52
676068,-70
676076,-78
676084,-63
676092,-47
676100,-41
676108,-55
676116,-66
676124,-72
676132,-69
676140,-56
676148,-33
676156,-21
676164,-40
676172,-75
676180,-102
676188,-99
676196,-76
676204,-53
676212,-48
676220,-65
676228,-89
676236,-95
676244,-82
676252,-59
676260,-40
676268,-34
676276,-43
676284,-59
676292,-58
676300,-46
676308,-40
676316,-49
676324,-67
676332,-80
676340,-73
676348,-56
676356,-31
676364,-18
676372,-22
676380,-45
676388,-64
676396,-70
676404,-77
676412,-77
676420,-55
676428,-31
676436,-35
676444,-68
676452,-84
676460,-62
676468,-29
676476,-27
676484,-54
676492,-75
676500,-77
676508,-75
676516,-78
676524,-58
676532,-15
676540,-44
676548,-193
676556,-175
676564,426
676572,1307
676580,1527
676588,663
676596,-579
676604,-1181
676612,-988
676620,-594
676628,-422
676636,-368
676644,-262
676652,-180
676660,-149
676668,-129
676676,-117
676684,-101
676692,-81
676700,-67
676708,-60
676716,-47
676724,-38
676732,-38
676740,-43
676748,-50
676756,-53
676764,-48
676772,-39
676780,-36
676788,-36
676796,-30
676804,-25
676812,-31
676820,-44
676828,-55
676836,-64
676844,-85
676852,-121
676860,-174
676868,-221
676876,-247
676884,-251
676892,-244
676900,-232
676908,-217
676916,-202
676924,-186
676932,-180
676940,-179
676948,-176
676956,-171
676964,-170
676972,-176
676980,-183
676988,-180
676996,-171
677004,-160
677012,-154
677020,-152
677028,-149
677036,-156
677044,-166
677052,-171
677060,-182
677068,-194
677076,-200
677084,-197
677092,-185
677100,-165
677108,-156
677116,-151
677124,-148
677132,-145
677140,-145
677148,-142
677156,-140
677164,-133
677172,-122
677180,-122
677188,-123
677196,-123
677204,-119
677212,-122
677220,-140
677228,-162
677236,-177
677244,-183
677252,-186
677260,-190
677268,-200
677276,-219
677284,-243
677292,-277
677300,-328
677308,-392
677316,-441
677324,-463
677332,-451
677340,-432
677348,-420
677356,-414
677364,-403
677372,-404
677380,-429
677388,-463
677396,-486
677404,-491
677412,-503
677420,-506
677428,-469
677436,-443
677444,-550
677452,-697
677460,-390
677468,553
677476,1323
677484,987
677492,-300
677500,-1395
677508,-1543
677516,-1088
677524,-722
677532,-599
677540,-496
677548,-363
677556,-275
677564,-193
677572,-111
677580,-50
677588,-13
677596,12
677604,40
677612,55
677620,40
677628,20
677636,7
677644,5
677652,11
677660,15
677668,11
677676,7
677684,-12
677692,-33
677700,-32
677708,-12
677716,13
677724,34
677732,37
677740,17
677748,-28
677756,-92
677764,-144
677772,-161
677780,-141
677788,-95
677796,-34
677804,21
677812,70
677820,119
677828,156
677836,188
677844,206
677852,209
677860,211
677868,215
677876,223
677884,221
677892,221
677900,234
677908,271
677916,299
677924,297
677932,270
677940,241
677948,227
677956,228
677964,241
677972,250
677980,253
677988,240
677996,215
678004,195
678012,189
678020,178
678028,158
678036,140
678044,125
678052,111
678060,104
678068,119
678076,155
678084,181
678092,196
678100,220
678108,264
678116,327
678124,381
678132,395
678140,361
678148,309
678156,265
678164,233
678172,202
678180,153
678188,89
678196,36
678204,-6
678212,-25
678220,0
678228,29
678236,-29
678244,-195
678252,-132
678260,571
678268,1522
678276,1698
678284,714
678292,-606
678300,-1193
678308,-929
678316,-483
678324,-309
678332,-269
678340,-169
678348,-71
678356,-12
678364,33
678372,51
678380,59
678388,67
678396,85
678404,101
678412,92
678420,79
678428,87
678436,120
678444,149
678452,146
678460,133
678468,136
678476,155
678484,160
678492,139
678500,99
678508,61
678516,49
678524,49
678532,36
678540,5
678548,-44
678556,-86
678564,-97
678572,-88
678580,-85
678588,-75
678596,-42
678604,4
678612,25
678620,13
678628,-3
678636,0
678644,1
678652,-4
678660,-6
678668,4
678676,21
678684,38
678692,51
678700,49
678708,44
678716,35
678724,27
678732,17
678740,4
678748,-17
678756,-43
678764,-63
678772,-61
678780,-46
678788,-31
678796,-33
678804,-44
678812,-54
678820,-56
678828,-42
678836,-11
678844,14
678852,24
678860,21
678868,21
678876,6
678884,-24
678892,-54
678900,-68
678908,-68
678916,-74
678924,-80
678932,-70
678940,-52
678948,-51
678956,-75
678964,-108
678972,-114
678980,-100
678988,-84
678996,-48
679004,-21
679012,-78
679020,-232
679028,-136
679036,578
679044,1457
679052,1533
679060,522
679068,-731
679076,-1252
679084,-998
679092,-602
679100,-449
679108,-391
679116,-285
679124,-203
679132,-155
679140,-117
679148,-99
679156,-93
679164,-88
679172,-76
679180,-63
679188,-49
679196,-48
679204,-54
679212,-55
679220,-45
679228,-33
679236,-25
679244,-33
679252,-37
679260,-27
679268,-4
679276,13
679284,17
679292,20
679300,24
679308,10
679316,-35
679324,-109
679332,-163
679340,-194
679348,-206
679356,-207
679364,-193
679372,-165
679380,-131
679388,-107
679396,-87
679404,-73
679412,-69
679420,-74
679428,-88
679436,-97
679444,-95
679452,-82
679460,-67
679468,-60
679476,-55
679484,-52
679492,-55
679500,-64
679508,-68
679516,-70
679524,-68
679532,-66
679540,-63
679548,-63
679556,-73
679564,-86
679572,-88
679580,-85
679588,-79
679596,-68
679604,-63
679612,-61
679620,-72
679628,-86
679636,-88
679644,-80
679652,-72
679660,-68
679668,-75
679676,-80
679684,-83
679692,-78
679700,-73
679708,-70
679716,-70
679724,-73
679732,-75
679740,-65
679748,-51
679756,-46
679764,-58
679772,-79
679780,-88
679788,-79
679796,-81
679804,-66
679812,-32
679820,-41
679828,-175
679836,-226
679844,261
679852,1181
679860,1624
679868,952
679876,-341
679884,-1162
679892,-1104
679900,-686
679908,-450
679916,-392
679924,-306
679932,-214
679940,-163
679948,-121
679956,-85
679964,-68
679972,-63
679980,-67
679988,-67
679996,-63
680004,-56
680012,-44
680020,-36
680028,-30
680036,-27
680044,-24
680052,-21
680060,-20
680068,-15
680076,1
680084,18
680092,28
680100,27
680108,18
680116,3
680124,-30
680132,-72
680140,-109
680148,-133
680156,-166
680164,-200
680172,-206
680180,-175
680188,-132
680196,-102
680204,-85
680212,-62
680220,-37
680228,-21
680236,-24
680244,-44
680252,-74
680260,-103
680268,-107
680276,-91
680284,-58
680292,-34
680300,-32
680308,-43
680316,-56
680324,-66
680332,-60
680340,-59
680348,-67
680356,-75
680364,-76
680372,-82
680380,-84
680388,-74
680396,-49
680404,-27
680412,-37
680420,-70
680428,-91
680436,-77
680444,-58
680452,-51
680460,-56
680468,-66
680476,-75
680484,-83
680492,-84
680500,-71
680508,-53
680516,-44
680524,-57
680532,-74
680540,-76
680548,-63
680556,-61
680564,-79
680572,-101
680580,-98
680588,-76
680596,-51
680604,-47
680612,-59
680620,-69
680628,-71
680636,-80
680644,-83
680652,-55
680660,-19
680668,-83
680676,-220
680684,-8
680692,793
680700,1540
680708,1352
680716,232
680724,-861
680732,-1152
680740,-828
680748,-502
680756,-401
680764,-335
680772,-230
680780,-161
680788,-122
680796,-106
680804,-95
680812,-61
680820,-30
680828,-30
680836,-45
680844,-40
680852,-26
680860,-46
680868,-75
680876,-70
680884,-25
680892,32
680900,63
680908,66
680916,64
680924,77
680932,74
680940,59
680948,26
680956,-7
680964,-34
680972,-66
680980,-116
680988,-171
680996,-214
681004,-247
681012,-263
681020,-264
681028,-251
681036,-232
681044,-216
681052,-193
681060,-171
681068,-150
681076,-135
681084,-126
681092,-112
681100,-85
681108,-57
681116,-44
681124,-39
681132,-22
681140,2
681148,1
681156,-40
681164,-83
681172,-83
681180,-50
681188,-25
681196,-23
681204,-32
681212,-32
681220,-19
681228,-9
681236,-14
681244,-27
681252,-28
681260,-12
681268,3
681276,-2
681284,-20
681292,-25
681300,-23
681308,-24
681316,-39
681324,-58
681332,-72
681340,-82
681348,-80
681356,-66
681364,-53
681372,-47
681380,-40
681388,-32
681396,-31
681404,-42
681412,-52
681420,-58
681428,-68
681436,-86
681444,-75
681452,-35
681460,-29
681468,-154
681476,-259
681484,113
681492,1003
681500,1591
681508,1114
681516,-128
681524,-1061
681532,-1126
681540,-723
681548,-453
681556,-390
681564,-309
681572,-203
681580,-152
681588,-128
681596,-111
681604,-100
681612,-93
681620,-93
681628,-87
681636,-69
681644,-39
681652,-24
681660,-31
681668,-46
681676,-49
681684,-39
681692,-26
681700,-33
681708,-47
681716,-47
681724,-26
681732,-4
681740,13
681748,18
681756,15
681764,-8
681772,-58
681780,-112
681788,-159
681796,-188
681804,-207
681812,-208
681820,-190
681828,-158
681836,-119
681844,-88
681852,-76
681860,-81
681868,-94
681876,-100
681884,-91
681892,-72
681900,-52
681908,-43
681916,-49
681924,-54
681932,-44
681940,-32
681948,-40
681956,-65
681964,-79
681972,-69
681980,-52
681988,-41
681996,-31
682004,-19
682012,-23
682020,-43
682028,-58
682036,-49
682044,-30
682052,-21
682060,-27
682068,-33
682076,-37
682084,-45
682092,-49
682100,-56
682108,-62
682116,-64
682124,-58
682132,-52
682140,-46
682148,-46
682156,-41
682164,-39
682172,-51
682180,-68
682188,-80
682196,-79
682204,-72
682212,-69
682220,-50
682228,-25
682236,-17
682244,-37
682252,-61
682260,-63
682268,-64
682276,-70
682284,-56
682292,-32
682300,-85
682308,-235
682316,-163
682324,488
682332,1327
682340,1465
682348,590
682356,-562
682364,-1087
682372,-871
682380,-445
682388,-165
682396,55
682404,218
682412,143
682420,-110
682428,-267
682436,-163
682444,72
682452,172
682460,49
682468,-113
682476,-133
682484,-42
682492,35
682500,31
682508,-10
682516,-3
682524,56
682532,86
682540,60
682548,35
682556,70
682564,131
682572,118
682580,5
682588,-102
682596,-110
682604,-30
682612,42
682620,7
682628,-120
682636,-179
682644,-117
682652,-33
682660,-39
682668,-122
682676,-162
682684,-100
682692,-33
682700,-26
682708,-42
682716,-48
682724,-28
682732,53
682740,160
682748,188
682756,113
682764,17
682772,-11
682780,31
682788,93
682796,111
682804,116
682812,162
682820,218
682828,200
682836,69
682844,-97
682852,-181
682860,-164
682868,-131
682876,-151
682884,-181
682892,-175
682900,-155
682908,-141
682916,-138
682924,-144
682932,-153
682940,-183
682948,-224
682956,-231
682964,-173
682972,-109
682980,-106
682988,-159
682996,-207
683004,-200
683012,-163
683020,-141
683028,-142
683036,-145
683044,-220
683052,-356
683060,-207
683068,430
683076,1058
683084,951
683092,89
683100,-758
683108,-976
683116,-721
683124,-484
683132,-401
683140,-329
683148,-249
683156,-216
683164,-222
683172,-249
683180,-246
683188,-204
683196,-182
683204,-200
683212,-218
683220,-216
683228,-196
683236,-191
683244,-213
683252,-215
683260,-176
683268,-134
683276,-111
683284,-105
683292,-105
683300,-91
683308,-67
683316,-53
683324,-46
683332,-47
683340,-90
683348,-155
683356,-209
683364,-229
683372,-223
683380,-214
683388,-208
683396,-187
683404,-160
683412,-142
683420,-141
683428,-144
683436,-136
683444,-112
683452,-91
683460,-82
683468,-78
683476,-74
683484,-88
683492,-132
683500,-172
683508,-185
683516,-170
683524,-150
683532,-141
683540,-145
683548,-152
683556,-161
683564,-164
683572,-154
683580,-143
683588,-137
683596,-130
683604,-123
683612,-128
683620,-143
683628,-148
683636,-125
683644,-91
683652,-77
683660,-91
683668,-98
683676,-72
683684,-40
683692,-30
683700,-57
683708,-101
683716,-121
683724,-110
683732,-86
683740,-87
683748,-97
683756,-70
683764,-27
683772,-73
683780,-214
683788,-83
683796,630
683804,1412
683812,1363
683820,350
683828,-755
683836,-1120
683844,-819
683852,-465
683860,-336
683868,-258
683876,-154
683884,-105
683892,-83
683900,-53
683908,-40
683916,-44
683924,-47
683932,-41
683940,-22
683948,-13
683956,-16
683964,-23
683972,-28
683980,-37
683988,-43
683996,-33
684004,-12
684012,20
684020,54
684028,67
684036,57
684044,50
684052,47
684060,33
684068,-5
684076,-56
684084,-91
684092,-93
684100,-83
684108,-75
684116,-74
684124,-73
684132,-78
684140,-67
684148,-48
684156,-21
684164,8
684172,24
684180,20
684188,12
684196,8
684204,9
684212,9
684220,-1
684228,-4
684236,1
684244,3
684252,-5
684260,1
684268,18
684276,21
684284,1
684292,-20
684300,-34
684308,-36
684316,-32
684324,-21
684332,-25
684340,-37
684348,-34
684356,-7
684364,20
684372,14
684380,-16
684388,-24
684396,-18
684404,-21
684412,-13
684420,19
684428,-16
684436,-169
684444,-155
684452,469
684460,1405
684468,1673
684476,799
684484,-490
684492,-1146
684500,-972
684508,-564
684516,-391
684524,-352
684532,-261
684540,-174
684548,-118
684556,-38
684564,30
684572,45
684580,21
684588,9
684596,18
684604,13
684612,-45
684620,-99
684628,-73
684636,5
684644,38
684652,21
684660,28
684668,80
684676,99
684684,37
684692,-43
684700,-52
684708,31
684716,108
684724,98
684732,9
684740,-103
684748,-168
684756,-167
684764,-128
684772,-101
684780,-90
684788,-84
684796,-83
684804,-91
684812,-101
684820,-101
684828,-94
684836,-94
684844,-111
684852,-128
684860,-131
684868,-119
684876,-115
684884,-118
684892,-114
684900,-93
684908,-74
684916,-66
684924,-69
684932,-68
684940,-59
684948,-55
684956,-56
684964,-59
684972,-56
684980,-65
684988,-83
684996,-96
685004,-94
685012,-89
685020,-100
685028,-108
685036,-90
685044,-54
685052,-33
685060,-53
685068,-92
685076,-104
685084,-103
685092,-89
685100,-44
685108,-7
685116,-73
685124,-236
685132,-81
685140,712
685148,1570
685156,1502
685164,370
685172,-860
685180,-1256
685188,-907
685196,-476
685204,-301
685212,-208
685220,-99
685228,-49
685236,-51
685244,-83
685252,-127
685260,-129
685268,-78
685276,-8
685284,33
685292,31
685300,9
685308,-3
685316,-10
685324,-23
685332,-38
685340,-46
685348,-43
685356,-45
685364,-55
685372,-66
685380,-76
685388,-77
685396,-70
685404,-62
685412,-64
685420,-88
685428,-128
685436,-145
685444,-119
685452,-89
685460,-82
685468,-100
685476,-97
685484,-60
